{
  "AcquisitionMatrixPE": 64,
  "AcquisitionNumber": 1,
  "AcquisitionTime": "17:54:10.905000",
  "BandwidthPerPixelPhaseEncode": 31.888,
  "BaseResolution": 64,
  "BodyPartExamined": "HEAD",
  "CoilCombinationMethod": "Sum of Squares",
  "ConsistencyInfo": "N4_VE11C_LATEST_20160120",
  "ConversionSoftware": "dcm2niix",
  "ConversionSoftwareVersion": "v1.0.20211006",
  "DerivedVendorReportedEchoSpacing": 0.000489996,
  "DeviceSerialNumber": "167048",
  "EchoTime": 0.03,
  "EchoTrainLength": 64,
  "EffectiveEchoSpacing": 0.000489996,
  "FlipAngle": 90,
  "ImageOrientationPatientDICOM": [0.998685, 0.0512692, 0.000327859, -0.0505912, 0.986475, -0.155909],
  "ImageType": [
    "ORIGINAL",
    "PRIMARY",
    "M",
    "ND",
    "NORM",
    "MOSAIC"
],
  "ImagingFrequency": 123.261,
  "InPlanePhaseEncodingDirectionDICOM": "COL",
  "InstitutionAddress": "Azinhaga Santa Comba StreetNo,Coimbra,District,PT,3000",
  "InstitutionName": "ICNAS",
  "MRAcquisitionType": "2D",
  "MagneticFieldStrength": 3,
  "Manufacturer": "Siemens",
  "ManufacturersModelName": "Prisma_fit",
  "MatrixCoilMode": "SENSE",
  "Modality": "MR",
  "PartialFourier": 1,
  "PatientPosition": "HFS",
  "PercentPhaseFOV": 100,
  "PercentSampling": 100,
  "PhaseEncodingDirection": "j-",
  "PhaseEncodingSteps": 64,
  "PhaseResolution": 1,
  "PixelBandwidth": 2365,
  "ProcedureStepDescription": "RM_FUNCIONAL",
  "ProtocolName": "rtfmri_neurofeedback_MTRun1",
  "PulseSequenceDetails": "%SiemensSeq%\\ep2d_bold",
  "ReceiveCoilActiveElements": "HE1-4",
  "ReceiveCoilName": "HeadNeck_20",
  "ReconMatrixPE": 64,
  "RepetitionTime": 2,
  "SAR": 0.0995964,
  "ScanOptions": "FS",
  "ScanningSequence": "EP",
  "SequenceName": "*epfid2d1_64",
  "SequenceVariant": "SK",
  "SeriesDescription": "rtfmri_neurofeedback_MTRun1",
  "SeriesNumber": 4,
  "ShimSetting": [10170, 2136, 8370, 473, -35, 46, -53, 8],
  "SliceThickness": 3,
  "SliceTiming": [0, 1.02, 0.06, 1.08, 0.12, 1.14, 0.18, 1.2, 0.24, 1.26, 0.3, 1.32, 0.36, 1.38, 0.42, 1.44, 0.48, 1.5, 0.54, 1.56, 0.6, 1.62, 0.66, 1.68, 0.72, 1.74, 0.78, 1.8, 0.84, 1.86, 0.9, 1.92, 0.96],
  "SoftwareVersions": "syngo MR E11",
  "SpacingBetweenSlices": 3,
  "StationName": "MRC35377",
  "TaskName": "nf",
  "TotalReadoutTime": 0.0308698,
  "TxRefAmp": 237.563,
  "dcmmeta_affine": [
    [-3.9947400093078613, -0.20236480236053467, 0.024950264021754265, 131.2679443359375],
    [-0.20507679879665375, 3.9458999633789062, -0.46706217527389526, -99.06698608398438],
    [0.001311435946263373, 0.62363600730896, 2.9633147716522217, -56.02309799194336],
    [0.0, 0.0, 0.0, 1.0]
],
  "dcmmeta_reorient_transform": [
    [0.0, -1.0, 0.0, 63.0],
    [1.0, 0.0, 0.0, 0.0],
    [0.0, 0.0, 1.0, 0.0],
    [0.0, 0.0, 0.0, 1.0]
],
  "dcmmeta_shape": [64, 64, 33, 275],
  "dcmmeta_slice_dim": 2,
  "dcmmeta_version": 0.6,
  "global": {
    "const": {
      "AccessionNumber": "0",
      "AcquisitionMatrix": [64, 0, 0, 64],
      "AngioFlag": "N",
      "BitsAllocated": 16,
      "BitsStored": 12,
      "BodyPartExamined": "HEAD",
      "Columns": 384,
      "EchoNumbers": 1,
      "EchoTime": 30.0,
      "EchoTrainLength": 64,
      "FlipAngle": 90.0,
      "HighBit": 11,
      "ImageOrientationPatient": [0.998685, 0.0512692, 0.000327859, -0.0505912, 0.986475, -0.155909],
      "ImagePositionPatient": [-725.299, -813.681, 82.8379],
      "ImageType": [
        "ORIGINAL",
        "PRIMARY",
        "M",
        "ND",
        "NORM",
        "MOSAIC"
],
      "ImagedNucleus": "1H",
      "ImagingFrequency": 123.261,
      "InPlanePhaseEncodingDirection": "COL",
      "MRAcquisitionType": "2D",
      "MagneticFieldStrength": 3.0,
      "Manufacturer": "SIEMENS",
      "ManufacturerModelName": "Prisma_fit",
      "Modality": "MR",
      "NumberOfAverages": 1.0,
      "NumberOfFrames": 1,
      "NumberOfPhaseEncodingSteps": 64,
      "PercentPhaseFieldOfView": 100.0,
      "PercentSampling": 100.0,
      "PerformedProcedureStepStartTime": "171425.480000",
      "PhotometricInterpretation": "MONOCHROME2",
      "PixelBandwidth": 2365.0,
      "PixelRepresentation": 0,
      "PixelSpacing": [4.0, 4.0],
      "ProtocolName": "rtfmri_neurofeedback_MTRun1",
      "RepetitionTime": 2000.0,
      "RequestAttributesSequence": [
        {
          "RequestedProcedureID": "860",
          "ScheduledProcedureStepDescription": "RM_FUNCIONAL",
          "ScheduledProcedureStepID": "1"}
],
      "Rows": 384,
      "SAR": 0.0995964,
      "SamplesPerPixel": 1,
      "ScanOptions": "FS",
      "ScanningSequence": "EP",
      "SequenceName": "*epfid2d1_64",
      "SequenceVariant": "SK",
      "SeriesDescription": "rtfmri_neurofeedback_MTRun1",
      "SeriesNumber": 4,
      "SeriesTime": "175413.782000",
      "SliceLocation": -38.823,
      "SliceThickness": 3.0,
      "SmallestImagePixelValue": 0,
      "SoftwareVersions": "syngo MR E11",
      "SpacingBetweenSlices": 3.0,
      "SpecificCharacterSet": "ISO_IR 100",
      "StudyID": "860",
      "StudyTime": "171423.779000",
      "TransmitCoilName": "Body",
      "VariableFlipAngleFlag": "N",
      "WindowCenterWidthExplanation": "Algo1",
      "dBdt": 0.0},
    "slices": {}
  },
  "time": {
    "samples": {
      "AcquisitionNumber": [1, 2, 3, 4, 5, 6, 7, 8, 9, 10, 11, 12, 13, 14, 15, 16, 17, 18, 19, 20, 21, 22, 23, 24, 25, 26, 27, 28, 29, 30, 31, 32, 33, 34, 35, 36, 37, 38, 39, 40, 41, 42, 43, 44, 45, 46, 47, 48, 49, 50, 51, 52, 53, 54, 55, 56, 57, 58, 59, 60, 61, 62, 63, 64, 65, 66, 67, 68, 69, 70, 71, 72, 73, 74, 75, 76, 77, 78, 79, 80, 81, 82, 83, 84, 85, 86, 87, 88, 89, 90, 91, 92, 93, 94, 95, 96, 97, 98, 99, 100, 101, 102, 103, 104, 105, 106, 107, 108, 109, 110, 111, 112, 113, 114, 115, 116, 117, 118, 119, 120, 121, 122, 123, 124, 125, 126, 127, 128, 129, 130, 131, 132, 133, 134, 135, 136, 137, 138, 139, 140, 141, 142, 143, 144, 145, 146, 147, 148, 149, 150, 151, 152, 153, 154, 155, 156, 157, 158, 159, 160, 161, 162, 163, 164, 165, 166, 167, 168, 169, 170, 171, 172, 173, 174, 175, 176, 177, 178, 179, 180, 181, 182, 183, 184, 185, 186, 187, 188, 189, 190, 191, 192, 193, 194, 195, 196, 197, 198, 199, 200, 201, 202, 203, 204, 205, 206, 207, 208, 209, 210, 211, 212, 213, 214, 215, 216, 217, 218, 219, 220, 221, 222, 223, 224, 225, 226, 227, 228, 229, 230, 231, 232, 233, 234, 235, 236, 237, 238, 239, 240, 241, 242, 243, 244, 245, 246, 247, 248, 249, 250, 251, 252, 253, 254, 255, 256, 257, 258, 259, 260, 261, 262, 263, 264, 265, 266, 267, 268, 269, 270, 271, 272, 273, 274, 275],
      "AcquisitionTime": ["175410.905000", "175412.905000", "175414.905000", "175416.905000", "175418.905000", "175420.905000", "175422.905000", "175424.905000", "175426.905000", "175428.905000", "175430.905000", "175432.905000", "175434.905000", "175436.905000", "175438.905000", "175440.905000", "175442.905000", "175444.905000", "175446.905000", "175448.905000", "175450.905000", "175452.905000", "175454.905000", "175456.905000", "175458.905000", "175500.905000", "175502.905000", "175504.905000", "175506.905000", "175508.905000", "175510.905000", "175512.905000", "175514.905000", "175516.905000", "175518.905000", "175520.905000", "175522.905000", "175524.905000", "175526.905000", "175528.905000", "175530.905000", "175532.905000", "175534.905000", "175536.905000", "175538.905000", "175540.905000", "175542.905000", "175544.905000", "175546.905000", "175548.905000", "175550.905000", "175552.905000", "175554.905000", "175556.905000", "175558.905000", "175600.905000", "175602.905000", "175604.905000", "175606.905000", "175608.905000", "175610.905000", "175612.905000", "175614.905000", "175616.905000", "175618.905000", "175620.905000", "175622.905000", "175624.905000", "175626.905000", "175628.905000", "175630.905000", "175632.905000", "175634.905000", "175636.905000", "175638.905000", "175640.905000", "175642.905000", "175644.905000", "175646.905000", "175648.905000", "175650.905000", "175652.905000", "175654.905000", "175656.905000", "175658.905000", "175700.905000", "175702.905000", "175704.905000", "175706.905000", "175708.905000", "175710.905000", "175712.905000", "175714.905000", "175716.905000", "175718.905000", "175720.905000", "175722.905000", "175724.905000", "175726.905000", "175728.905000", "175730.905000", "175732.905000", "175734.905000", "175736.905000", "175738.905000", "175740.905000", "175742.905000", "175744.905000", "175746.905000", "175748.905000", "175750.905000", "175752.905000", "175754.905000", "175756.905000", "175758.905000", "175800.905000", "175802.905000", "175804.905000", "175806.905000", "175808.905000", "175810.905000", "175812.905000", "175814.905000", "175816.905000", "175818.905000", "175820.905000", "175822.905000", "175824.905000", "175826.905000", "175828.905000", "175830.905000", "175832.905000", "175834.905000", "175836.905000", "175838.905000", "175840.905000", "175842.905000", "175844.905000", "175846.905000", "175848.905000", "175850.905000", "175852.905000", "175854.905000", "175856.905000", "175858.905000", "175900.905000", "175902.905000", "175904.905000", "175906.905000", "175908.905000", "175910.905000", "175912.905000", "175914.905000", "175916.905000", "175918.905000", "175920.905000", "175922.905000", "175924.905000", "175926.905000", "175928.905000", "175930.905000", "175932.905000", "175934.905000", "175936.905000", "175938.905000", "175940.905000", "175942.905000", "175944.905000", "175946.905000", "175948.905000", "175950.905000", "175952.905000", "175954.905000", "175956.905000", "175958.905000", "180000.905000", "180002.905000", "180004.905000", "180006.905000", "180008.905000", "180010.905000", "180012.905000", "180014.905000", "180016.905000", "180018.905000", "180020.905000", "180022.905000", "180024.905000", "180026.905000", "180028.905000", "180030.905000", "180032.905000", "180034.905000", "180036.905000", "180038.905000", "180040.905000", "180042.905000", "180044.905000", "180046.905000", "180048.905000", "180050.905000", "180052.905000", "180054.905000", "180056.905000", "180058.905000", "180100.905000", "180102.905000", "180104.905000", "180106.905000", "180108.905000", "180110.905000", "180112.905000", "180114.905000", "180116.905000", "180118.905000", "180120.905000", "180122.905000", "180124.905000", "180126.905000", "180128.905000", "180130.905000", "180132.905000", "180134.905000", "180136.905000", "180138.905000", "180140.905000", "180142.905000", "180144.905000", "180146.905000", "180148.905000", "180150.905000", "180152.905000", "180154.905000", "180156.905000", "180158.905000", "180200.905000", "180202.905000", "180204.905000", "180206.905000", "180208.905000", "180210.905000", "180212.905000", "180214.905000", "180216.905000", "180218.905000", "180220.905000", "180222.905000", "180224.905000", "180226.905000", "180228.905000", "180230.905000", "180232.905000", "180234.905000", "180236.905000", "180238.905000", "180240.905000", "180242.905000", "180244.905000", "180246.905000", "180248.905000", "180250.905000", "180252.905000", "180254.905000", "180256.905000", "180258.905000", "180300.905000", "180302.905000", "180304.905000", "180306.905000", "180308.905000", "180310.905000", "180312.905000", "180314.905000", "180316.905000", "180318.905000"],
      "ContentTime": ["175413.785000", "175415.781000", "175417.781000", "175419.781000", "175421.781000", "175423.781000", "175425.781000", "175427.781000", "175429.781000", "175431.781000", "175433.781000", "175435.781000", "175437.781000", "175439.781000", "175441.781000", "175443.781000", "175445.781000", "175447.781000", "175449.781000", "175451.781000", "175453.781000", "175455.781000", "175457.781000", "175459.781000", "175501.781000", "175503.781000", "175505.781000", "175507.781000", "175509.781000", "175511.781000", "175513.781000", "175515.781000", "175517.781000", "175519.781000", "175521.781000", "175523.781000", "175525.781000", "175527.781000", "175529.781000", "175531.781000", "175533.781000", "175535.781000", "175537.781000", "175539.781000", "175541.781000", "175543.781000", "175545.781000", "175547.781000", "175549.781000", "175551.781000", "175553.781000", "175555.781000", "175557.781000", "175559.781000", "175601.781000", "175603.781000", "175605.781000", "175607.781000", "175609.781000", "175611.781000", "175613.781000", "175615.781000", "175617.781000", "175619.781000", "175621.781000", "175623.781000", "175625.781000", "175627.781000", "175629.781000", "175631.781000", "175633.781000", "175635.781000", "175637.781000", "175639.781000", "175641.781000", "175643.781000", "175645.781000", "175647.781000", "175649.781000", "175651.781000", "175653.781000", "175655.781000", "175657.781000", "175659.781000", "175701.781000", "175703.781000", "175705.781000", "175707.781000", "175709.781000", "175711.781000", "175713.781000", "175715.781000", "175717.781000", "175719.781000", "175721.781000", "175723.781000", "175725.781000", "175727.781000", "175729.781000", "175731.781000", "175733.781000", "175735.781000", "175737.781000", "175739.781000", "175741.781000", "175743.781000", "175745.781000", "175747.781000", "175749.781000", "175751.781000", "175753.781000", "175755.781000", "175757.781000", "175759.781000", "175801.781000", "175803.781000", "175805.781000", "175807.781000", "175809.781000", "175811.781000", "175813.781000", "175815.781000", "175817.781000", "175819.781000", "175821.781000", "175823.781000", "175825.781000", "175827.781000", "175829.781000", "175831.781000", "175833.781000", "175835.781000", "175837.781000", "175839.781000", "175841.781000", "175843.781000", "175845.781000", "175847.781000", "175849.781000", "175851.781000", "175853.781000", "175855.781000", "175857.781000", "175859.781000", "175901.781000", "175903.781000", "175905.781000", "175907.781000", "175909.781000", "175911.781000", "175913.781000", "175915.781000", "175917.781000", "175919.781000", "175921.781000", "175923.781000", "175925.781000", "175927.781000", "175929.781000", "175931.781000", "175933.781000", "175935.781000", "175937.781000", "175939.781000", "175941.781000", "175943.781000", "175945.781000", "175947.781000", "175949.781000", "175951.781000", "175953.781000", "175955.781000", "175957.781000", "175959.781000", "180001.781000", "180003.781000", "180005.781000", "180007.781000", "180009.781000", "180011.781000", "180013.781000", "180015.781000", "180017.781000", "180019.781000", "180021.781000", "180023.781000", "180025.781000", "180027.781000", "180029.781000", "180031.781000", "180033.781000", "180035.781000", "180037.781000", "180039.781000", "180041.781000", "180043.781000", "180045.781000", "180047.781000", "180049.781000", "180051.781000", "180053.781000", "180055.781000", "180057.781000", "180059.781000", "180101.781000", "180103.781000", "180105.781000", "180107.781000", "180109.781000", "180111.781000", "180113.781000", "180115.781000", "180117.781000", "180119.781000", "180121.781000", "180123.781000", "180125.781000", "180127.781000", "180129.781000", "180131.781000", "180133.781000", "180135.781000", "180137.781000", "180139.781000", "180141.781000", "180143.781000", "180145.781000", "180147.789000", "180149.781000", "180151.781000", "180153.781000", "180155.781000", "180157.781000", "180159.781000", "180201.781000", "180203.781000", "180205.781000", "180207.781000", "180209.781000", "180211.781000", "180213.781000", "180215.781000", "180217.781000", "180219.781000", "180221.781000", "180223.781000", "180225.781000", "180227.781000", "180229.781000", "180231.781000", "180233.781000", "180235.781000", "180237.781000", "180239.781000", "180241.781000", "180243.781000", "180245.781000", "180247.781000", "180249.781000", "180251.781000", "180253.781000", "180255.781000", "180257.781000", "180259.781000", "180301.781000", "180303.781000", "180305.781000", "180307.781000", "180309.781000", "180311.781000", "180313.781000", "180315.781000", "180317.781000", "180319.781000", "180321.488000"],
      "InstanceCreationTime": ["175413.785000", "175415.781000", "175417.781000", "175419.781000", "175421.781000", "175423.781000", "175425.781000", "175427.781000", "175429.781000", "175431.781000", "175433.781000", "175435.781000", "175437.781000", "175439.781000", "175441.781000", "175443.781000", "175445.781000", "175447.781000", "175449.781000", "175451.781000", "175453.781000", "175455.781000", "175457.781000", "175459.781000", "175501.781000", "175503.781000", "175505.781000", "175507.781000", "175509.781000", "175511.781000", "175513.781000", "175515.781000", "175517.781000", "175519.781000", "175521.781000", "175523.781000", "175525.781000", "175527.781000", "175529.781000", "175531.781000", "175533.781000", "175535.781000", "175537.781000", "175539.781000", "175541.781000", "175543.781000", "175545.781000", "175547.781000", "175549.781000", "175551.781000", "175553.781000", "175555.781000", "175557.781000", "175559.781000", "175601.781000", "175603.781000", "175605.781000", "175607.781000", "175609.781000", "175611.781000", "175613.781000", "175615.781000", "175617.781000", "175619.781000", "175621.781000", "175623.781000", "175625.781000", "175627.781000", "175629.781000", "175631.781000", "175633.781000", "175635.781000", "175637.781000", "175639.781000", "175641.781000", "175643.781000", "175645.781000", "175647.781000", "175649.781000", "175651.781000", "175653.781000", "175655.781000", "175657.781000", "175659.781000", "175701.781000", "175703.781000", "175705.781000", "175707.781000", "175709.781000", "175711.781000", "175713.781000", "175715.781000", "175717.781000", "175719.781000", "175721.781000", "175723.781000", "175725.781000", "175727.781000", "175729.781000", "175731.781000", "175733.781000", "175735.781000", "175737.781000", "175739.781000", "175741.781000", "175743.781000", "175745.781000", "175747.781000", "175749.781000", "175751.781000", "175753.781000", "175755.781000", "175757.781000", "175759.781000", "175801.781000", "175803.781000", "175805.781000", "175807.781000", "175809.781000", "175811.781000", "175813.781000", "175815.781000", "175817.781000", "175819.781000", "175821.781000", "175823.781000", "175825.781000", "175827.781000", "175829.781000", "175831.781000", "175833.781000", "175835.781000", "175837.781000", "175839.781000", "175841.781000", "175843.781000", "175845.781000", "175847.781000", "175849.781000", "175851.781000", "175853.781000", "175855.781000", "175857.781000", "175859.781000", "175901.781000", "175903.781000", "175905.781000", "175907.781000", "175909.781000", "175911.781000", "175913.781000", "175915.781000", "175917.781000", "175919.781000", "175921.781000", "175923.781000", "175925.781000", "175927.781000", "175929.781000", "175931.781000", "175933.781000", "175935.781000", "175937.781000", "175939.781000", "175941.781000", "175943.781000", "175945.781000", "175947.781000", "175949.781000", "175951.781000", "175953.781000", "175955.781000", "175957.781000", "175959.781000", "180001.781000", "180003.781000", "180005.781000", "180007.781000", "180009.781000", "180011.781000", "180013.781000", "180015.781000", "180017.781000", "180019.781000", "180021.781000", "180023.781000", "180025.781000", "180027.781000", "180029.781000", "180031.781000", "180033.781000", "180035.781000", "180037.781000", "180039.781000", "180041.781000", "180043.781000", "180045.781000", "180047.781000", "180049.781000", "180051.781000", "180053.781000", "180055.781000", "180057.781000", "180059.781000", "180101.781000", "180103.781000", "180105.781000", "180107.781000", "180109.781000", "180111.781000", "180113.781000", "180115.781000", "180117.781000", "180119.781000", "180121.781000", "180123.781000", "180125.781000", "180127.781000", "180129.781000", "180131.781000", "180133.781000", "180135.781000", "180137.781000", "180139.781000", "180141.781000", "180143.781000", "180145.781000", "180147.789000", "180149.781000", "180151.781000", "180153.781000", "180155.781000", "180157.781000", "180159.781000", "180201.781000", "180203.781000", "180205.781000", "180207.781000", "180209.781000", "180211.781000", "180213.781000", "180215.781000", "180217.781000", "180219.781000", "180221.781000", "180223.781000", "180225.781000", "180227.781000", "180229.781000", "180231.781000", "180233.781000", "180235.781000", "180237.781000", "180239.781000", "180241.781000", "180243.781000", "180245.781000", "180247.781000", "180249.781000", "180251.781000", "180253.781000", "180255.781000", "180257.781000", "180259.781000", "180301.781000", "180303.781000", "180305.781000", "180307.781000", "180309.781000", "180311.781000", "180313.781000", "180315.781000", "180317.781000", "180319.781000", "180321.488000"],
      "InstanceNumber": [1, 2, 3, 4, 5, 6, 7, 8, 9, 10, 11, 12, 13, 14, 15, 16, 17, 18, 19, 20, 21, 22, 23, 24, 25, 26, 27, 28, 29, 30, 31, 32, 33, 34, 35, 36, 37, 38, 39, 40, 41, 42, 43, 44, 45, 46, 47, 48, 49, 50, 51, 52, 53, 54, 55, 56, 57, 58, 59, 60, 61, 62, 63, 64, 65, 66, 67, 68, 69, 70, 71, 72, 73, 74, 75, 76, 77, 78, 79, 80, 81, 82, 83, 84, 85, 86, 87, 88, 89, 90, 91, 92, 93, 94, 95, 96, 97, 98, 99, 100, 101, 102, 103, 104, 105, 106, 107, 108, 109, 110, 111, 112, 113, 114, 115, 116, 117, 118, 119, 120, 121, 122, 123, 124, 125, 126, 127, 128, 129, 130, 131, 132, 133, 134, 135, 136, 137, 138, 139, 140, 141, 142, 143, 144, 145, 146, 147, 148, 149, 150, 151, 152, 153, 154, 155, 156, 157, 158, 159, 160, 161, 162, 163, 164, 165, 166, 167, 168, 169, 170, 171, 172, 173, 174, 175, 176, 177, 178, 179, 180, 181, 182, 183, 184, 185, 186, 187, 188, 189, 190, 191, 192, 193, 194, 195, 196, 197, 198, 199, 200, 201, 202, 203, 204, 205, 206, 207, 208, 209, 210, 211, 212, 213, 214, 215, 216, 217, 218, 219, 220, 221, 222, 223, 224, 225, 226, 227, 228, 229, 230, 231, 232, 233, 234, 235, 236, 237, 238, 239, 240, 241, 242, 243, 244, 245, 246, 247, 248, 249, 250, 251, 252, 253, 254, 255, 256, 257, 258, 259, 260, 261, 262, 263, 264, 265, 266, 267, 268, 269, 270, 271, 272, 273, 274, 275],
      "LargestImagePixelValue": [1956, 2094, 1638, 1634, 1640, 1673, 1617, 1627, 1616, 1613, 1631, 1631, 1646, 1631, 1629, 1622, 1626, 1624, 1623, 1639, 1872, 1938, 1625, 1618, 1637, 1637, 1628, 1632, 2155, 1633, 1626, 1603, 1625, 1625, 1627, 1650, 1626, 1628, 1628, 1645, 1632, 1620, 1624, 1616, 1622, 1621, 1624, 1637, 1638, 1626, 1603, 1619, 1608, 1625, 1714, 1619, 1639, 1632, 1630, 1616, 1614, 1626, 1617, 1623, 1629, 1621, 1625, 1635, 1631, 1624, 1612, 1609, 2037, 1949, 1617, 1629, 1629, 1613, 1620, 1632, 1615, 1624, 1631, 1610, 1619, 1735, 2217, 1609, 1603, 1609, 1619, 1613, 2060, 2056, 1612, 1611, 1609, 1604, 1620, 1617, 1628, 1619, 1609, 1608, 1638, 1800, 1603, 1602, 1601, 1609, 1611, 1603, 1628, 1621, 1611, 1628, 2140, 1622, 1608, 1630, 1617, 1605, 1770, 1605, 1619, 1593, 1601, 1668, 1615, 1614, 1630, 1613, 1598, 1593, 1612, 1609, 1618, 1611, 1855, 2229, 1607, 1607, 1612, 1608, 1596, 1611, 1611, 1600, 1595, 1605, 1792, 1601, 1604, 1609, 1606, 1599, 1593, 1609, 1609, 1610, 1604, 1591, 1637, 1613, 1616, 1606, 1609, 1625, 1606, 1600, 1593, 1586, 1601, 1589, 1591, 1614, 1606, 1673, 1597, 1583, 1614, 1621, 1626, 1612, 1596, 1589, 1852, 1606, 1834, 1602, 1584, 1581, 1590, 1593, 1597, 1614, 1598, 1596, 1594, 1592, 1593, 1591, 1602, 1592, 1585, 1595, 1595, 1593, 1600, 1602, 1613, 1783, 1585, 1592, 1592, 1605, 1590, 1606, 1600, 1602, 1592, 1591, 1589, 1594, 1898, 1612, 1595, 1597, 1613, 1617, 1792, 1588, 1590, 1581, 1596, 1595, 1602, 1605, 1611, 1592, 1600, 1594, 1604, 1604, 1649, 1591, 1601, 1602, 1648, 1597, 2029, 1593, 1588, 1587, 1619, 1610, 1590, 1595, 1585, 1589, 1602, 1845, 1776, 1594, 1588, 1620, 1599, 1611, 2085, 2041, 1589, 1596, 1598, 1580, 1589],
      "WindowCenter": [680.0, 678.0, 677.0, 678.0, 677.0, 677.0, 676.0, 676.0, 676.0, 677.0, 677.0, 677.0, 677.0, 678.0, 679.0, 679.0, 678.0, 678.0, 678.0, 677.0, 678.0, 678.0, 677.0, 677.0, 678.0, 678.0, 677.0, 677.0, 678.0, 677.0, 677.0, 677.0, 677.0, 677.0, 677.0, 678.0, 678.0, 678.0, 677.0, 677.0, 678.0, 678.0, 677.0, 677.0, 677.0, 677.0, 677.0, 677.0, 677.0, 676.0, 677.0, 677.0, 677.0, 677.0, 677.0, 676.0, 676.0, 677.0, 677.0, 677.0, 677.0, 677.0, 677.0, 677.0, 677.0, 677.0, 677.0, 677.0, 677.0, 677.0, 677.0, 676.0, 677.0, 677.0, 676.0, 677.0, 677.0, 677.0, 677.0, 677.0, 677.0, 677.0, 677.0, 677.0, 676.0, 677.0, 678.0, 676.0, 676.0, 676.0, 678.0, 678.0, 678.0, 677.0, 676.0, 676.0, 676.0, 676.0, 676.0, 676.0, 676.0, 676.0, 677.0, 677.0, 677.0, 677.0, 676.0, 676.0, 676.0, 676.0, 676.0, 676.0, 677.0, 677.0, 676.0, 675.0, 677.0, 676.0, 676.0, 676.0, 676.0, 676.0, 676.0, 676.0, 678.0, 677.0, 676.0, 676.0, 676.0, 677.0, 677.0, 677.0, 676.0, 676.0, 677.0, 677.0, 677.0, 677.0, 677.0, 677.0, 676.0, 676.0, 675.0, 675.0, 676.0, 676.0, 676.0, 676.0, 676.0, 676.0, 676.0, 675.0, 676.0, 676.0, 676.0, 676.0, 677.0, 676.0, 676.0, 676.0, 676.0, 676.0, 676.0, 676.0, 676.0, 676.0, 676.0, 676.0, 676.0, 676.0, 676.0, 676.0, 676.0, 676.0, 676.0, 677.0, 676.0, 676.0, 676.0, 677.0, 677.0, 677.0, 676.0, 677.0, 676.0, 676.0, 677.0, 677.0, 677.0, 675.0, 675.0, 675.0, 675.0, 675.0, 675.0, 675.0, 676.0, 675.0, 675.0, 676.0, 676.0, 676.0, 676.0, 677.0, 677.0, 677.0, 677.0, 677.0, 676.0, 676.0, 676.0, 677.0, 676.0, 676.0, 676.0, 676.0, 676.0, 676.0, 676.0, 676.0, 676.0, 676.0, 677.0, 677.0, 677.0, 676.0, 676.0, 676.0, 676.0, 676.0, 676.0, 676.0, 676.0, 676.0, 676.0, 676.0, 676.0, 676.0, 676.0, 676.0, 676.0, 676.0, 676.0, 676.0, 676.0, 676.0, 676.0, 676.0, 676.0, 676.0, 677.0, 676.0, 676.0, 676.0, 676.0, 676.0, 677.0, 677.0, 677.0, 677.0, 676.0, 677.0, 676.0, 676.0, 676.0, 677.0, 677.0, 678.0, 678.0, 677.0, 675.0, 676.0, 676.0, 676.0, 676.0],
      "WindowWidth": [1494.0, 1487.0, 1485.0, 1486.0, 1484.0, 1483.0, 1482.0, 1481.0, 1481.0, 1484.0, 1485.0, 1483.0, 1483.0, 1488.0, 1489.0, 1489.0, 1488.0, 1487.0, 1486.0, 1485.0, 1488.0, 1488.0, 1484.0, 1485.0, 1488.0, 1487.0, 1485.0, 1485.0, 1488.0, 1484.0, 1484.0, 1485.0, 1484.0, 1484.0, 1485.0, 1487.0, 1487.0, 1487.0, 1486.0, 1486.0, 1486.0, 1486.0, 1485.0, 1484.0, 1483.0, 1484.0, 1485.0, 1483.0, 1483.0, 1482.0, 1483.0, 1485.0, 1484.0, 1483.0, 1484.0, 1482.0, 1482.0, 1484.0, 1484.0, 1485.0, 1484.0, 1484.0, 1483.0, 1483.0, 1483.0, 1484.0, 1483.0, 1483.0, 1484.0, 1485.0, 1483.0, 1481.0, 1485.0, 1483.0, 1481.0, 1483.0, 1484.0, 1483.0, 1482.0, 1484.0, 1484.0, 1485.0, 1484.0, 1483.0, 1482.0, 1483.0, 1487.0, 1482.0, 1482.0, 1482.0, 1487.0, 1486.0, 1485.0, 1484.0, 1481.0, 1482.0, 1481.0, 1480.0, 1481.0, 1481.0, 1481.0, 1482.0, 1483.0, 1483.0, 1484.0, 1484.0, 1481.0, 1481.0, 1481.0, 1480.0, 1481.0, 1481.0, 1484.0, 1483.0, 1481.0, 1479.0, 1484.0, 1480.0, 1480.0, 1480.0, 1481.0, 1480.0, 1480.0, 1481.0, 1485.0, 1483.0, 1481.0, 1481.0, 1482.0, 1483.0, 1484.0, 1484.0, 1482.0, 1481.0, 1483.0, 1482.0, 1483.0, 1483.0, 1484.0, 1485.0, 1480.0, 1479.0, 1479.0, 1479.0, 1480.0, 1481.0, 1481.0, 1482.0, 1482.0, 1481.0, 1481.0, 1479.0, 1481.0, 1481.0, 1481.0, 1482.0, 1483.0, 1482.0, 1482.0, 1480.0, 1481.0, 1481.0, 1482.0, 1481.0, 1481.0, 1480.0, 1480.0, 1481.0, 1480.0, 1480.0, 1480.0, 1481.0, 1481.0, 1480.0, 1481.0, 1483.0, 1482.0, 1481.0, 1482.0, 1483.0, 1484.0, 1483.0, 1482.0, 1483.0, 1482.0, 1480.0, 1483.0, 1484.0, 1483.0, 1479.0, 1479.0, 1478.0, 1478.0, 1477.0, 1478.0, 1479.0, 1480.0, 1479.0, 1479.0, 1480.0, 1482.0, 1481.0, 1481.0, 1483.0, 1483.0, 1483.0, 1483.0, 1484.0, 1482.0, 1481.0, 1481.0, 1483.0, 1481.0, 1482.0, 1481.0, 1481.0, 1482.0, 1481.0, 1480.0, 1481.0, 1482.0, 1482.0, 1483.0, 1482.0, 1484.0, 1481.0, 1481.0, 1481.0, 1481.0, 1480.0, 1482.0, 1480.0, 1481.0, 1481.0, 1481.0, 1481.0, 1482.0, 1481.0, 1481.0, 1482.0, 1481.0, 1481.0, 1481.0, 1480.0, 1482.0, 1481.0, 1481.0, 1482.0, 1481.0, 1480.0, 1485.0, 1481.0, 1482.0, 1481.0, 1480.0, 1481.0, 1482.0, 1484.0, 1485.0, 1482.0, 1481.0, 1483.0, 1482.0, 1479.0, 1480.0, 1483.0, 1485.0, 1485.0, 1487.0, 1484.0, 1478.0, 1480.0, 1480.0, 1481.0, 1481.0]
    },
    "slices": {}
  }
}