{
  "AcquisitionMatrixPE": 64,
  "AcquisitionNumber": 1,
  "AcquisitionTime": "17:33:53.125000",
  "BandwidthPerPixelPhaseEncode": 31.888,
  "BaseResolution": 64,
  "BodyPartExamined": "HEAD",
  "CoilCombinationMethod": "Sum of Squares",
  "ConsistencyInfo": "N4_VE11C_LATEST_20160120",
  "ConversionSoftware": "dcm2niix",
  "ConversionSoftwareVersion": "v1.0.20211006",
  "DerivedVendorReportedEchoSpacing": 0.000489996,
  "DeviceSerialNumber": "167048",
  "EchoTime": 0.03,
  "EchoTrainLength": 64,
  "EffectiveEchoSpacing": 0.000489996,
  "FlipAngle": 90,
  "ImageOrientationPatientDICOM": [0.998685, 0.0512692, 0.000327859, -0.0505912, 0.986475, -0.155909],
  "ImageType": [
    "ORIGINAL",
    "PRIMARY",
    "M",
    "ND",
    "NORM",
    "MOSAIC"
],
  "ImagingFrequency": 123.261,
  "InPlanePhaseEncodingDirectionDICOM": "COL",
  "InstitutionAddress": "Azinhaga Santa Comba StreetNo,Coimbra,District,PT,3000",
  "InstitutionName": "ICNAS",
  "MRAcquisitionType": "2D",
  "MagneticFieldStrength": 3,
  "Manufacturer": "Siemens",
  "ManufacturersModelName": "Prisma_fit",
  "MatrixCoilMode": "SENSE",
  "Modality": "MR",
  "PartialFourier": 1,
  "PatientPosition": "HFS",
  "PercentPhaseFOV": 100,
  "PercentSampling": 100,
  "PhaseEncodingDirection": "j-",
  "PhaseEncodingSteps": 64,
  "PhaseResolution": 1,
  "PixelBandwidth": 2365,
  "ProcedureStepDescription": "RM_FUNCIONAL",
  "ProtocolName": "rtfmri_neurofeedback_MTLoc",
  "PulseSequenceDetails": "%SiemensSeq%\\ep2d_bold",
  "ReceiveCoilActiveElements": "HE1-4",
  "ReceiveCoilName": "HeadNeck_20",
  "ReconMatrixPE": 64,
  "RepetitionTime": 2,
  "SAR": 0.0994967,
  "ScanOptions": "FS",
  "ScanningSequence": "EP",
  "SequenceName": "*epfid2d1_64",
  "SequenceVariant": "SK",
  "SeriesDescription": "rtfmri_neurofeedback_MTLoc",
  "SeriesNumber": 3,
  "ShimSetting": [10170, 2136, 8370, 473, -35, 46, -53, 8],
  "SliceThickness": 3,
  "SliceTiming": [0, 1.02, 0.06, 1.08, 0.12, 1.14, 0.18, 1.2, 0.24, 1.2575, 0.3, 1.3175, 0.36, 1.3775, 0.42, 1.4375, 0.48, 1.4975, 0.54, 1.5575, 0.6, 1.6175, 0.66, 1.6775, 0.72, 1.7375, 0.78, 1.7975, 0.84, 1.8575, 0.9, 1.9175, 0.96],
  "SoftwareVersions": "syngo MR E11",
  "SpacingBetweenSlices": 3,
  "StationName": "MRC35377",
  "TaskName": "loc",
  "TotalReadoutTime": 0.0308698,
  "TxRefAmp": 237.563,
  "dcmmeta_affine": [
    [-3.9947400093078613, -0.20236480236053467, 0.024950264021754265, 131.2679443359375],
    [-0.20507679879665375, 3.9458999633789062, -0.46706217527389526, -99.06698608398438],
    [0.001311435946263373, 0.62363600730896, 2.9633147716522217, -56.02309799194336],
    [0.0, 0.0, 0.0, 1.0]
],
  "dcmmeta_reorient_transform": [
    [0.0, -1.0, 0.0, 63.0],
    [1.0, 0.0, 0.0, 0.0],
    [0.0, 0.0, 1.0, 0.0],
    [0.0, 0.0, 0.0, 1.0]
],
  "dcmmeta_shape": [64, 64, 33, 200],
  "dcmmeta_slice_dim": 2,
  "dcmmeta_version": 0.6,
  "global": {
    "const": {
      "AccessionNumber": "0",
      "AcquisitionMatrix": [64, 0, 0, 64],
      "AngioFlag": "N",
      "BitsAllocated": 16,
      "BitsStored": 12,
      "BodyPartExamined": "HEAD",
      "Columns": 384,
      "EchoNumbers": 1,
      "EchoTime": 30.0,
      "EchoTrainLength": 64,
      "FlipAngle": 90.0,
      "HighBit": 11,
      "ImageOrientationPatient": [0.998685, 0.0512692, 0.000327859, -0.0505912, 0.986475, -0.155909],
      "ImagePositionPatient": [-725.299, -813.681, 82.8379],
      "ImageType": [
        "ORIGINAL",
        "PRIMARY",
        "M",
        "ND",
        "NORM",
        "MOSAIC"
],
      "ImagedNucleus": "1H",
      "ImagingFrequency": 123.261,
      "InPlanePhaseEncodingDirection": "COL",
      "MRAcquisitionType": "2D",
      "MagneticFieldStrength": 3.0,
      "Manufacturer": "SIEMENS",
      "ManufacturerModelName": "Prisma_fit",
      "Modality": "MR",
      "NumberOfAverages": 1.0,
      "NumberOfFrames": 1,
      "NumberOfPhaseEncodingSteps": 64,
      "PercentPhaseFieldOfView": 100.0,
      "PercentSampling": 100.0,
      "PerformedProcedureStepStartTime": "171425.480000",
      "PhotometricInterpretation": "MONOCHROME2",
      "PixelBandwidth": 2365.0,
      "PixelRepresentation": 0,
      "PixelSpacing": [4.0, 4.0],
      "ProtocolName": "rtfmri_neurofeedback_MTLoc",
      "RepetitionTime": 2000.0,
      "RequestAttributesSequence": [
        {
          "RequestedProcedureID": "860",
          "ScheduledProcedureStepDescription": "RM_FUNCIONAL",
          "ScheduledProcedureStepID": "1"}
],
      "Rows": 384,
      "SAR": 0.0994967,
      "SamplesPerPixel": 1,
      "ScanOptions": "FS",
      "ScanningSequence": "EP",
      "SequenceName": "*epfid2d1_64",
      "SequenceVariant": "SK",
      "SeriesDescription": "rtfmri_neurofeedback_MTLoc",
      "SeriesNumber": 3,
      "SeriesTime": "173356.121000",
      "SliceLocation": -38.823,
      "SliceThickness": 3.0,
      "SmallestImagePixelValue": 0,
      "SoftwareVersions": "syngo MR E11",
      "SpacingBetweenSlices": 3.0,
      "SpecificCharacterSet": "ISO_IR 100",
      "StudyID": "860",
      "StudyTime": "171423.779000",
      "TransmitCoilName": "Body",
      "VariableFlipAngleFlag": "N",
      "WindowCenterWidthExplanation": "Algo1",
      "dBdt": 0.0},
    "slices": {}
  },
  "time": {
    "samples": {
      "AcquisitionNumber": [1, 2, 3, 4, 5, 6, 7, 8, 9, 10, 11, 12, 13, 14, 15, 16, 17, 18, 19, 20, 21, 22, 23, 24, 25, 26, 27, 28, 29, 30, 31, 32, 33, 34, 35, 36, 37, 38, 39, 40, 41, 42, 43, 44, 45, 46, 47, 48, 49, 50, 51, 52, 53, 54, 55, 56, 57, 58, 59, 60, 61, 62, 63, 64, 65, 66, 67, 68, 69, 70, 71, 72, 73, 74, 75, 76, 77, 78, 79, 80, 81, 82, 83, 84, 85, 86, 87, 88, 89, 90, 91, 92, 93, 94, 95, 96, 97, 98, 99, 100, 101, 102, 103, 104, 105, 106, 107, 108, 109, 110, 111, 112, 113, 114, 115, 116, 117, 118, 119, 120, 121, 122, 123, 124, 125, 126, 127, 128, 129, 130, 131, 132, 133, 134, 135, 136, 137, 138, 139, 140, 141, 142, 143, 144, 145, 146, 147, 148, 149, 150, 151, 152, 153, 154, 155, 156, 157, 158, 159, 160, 161, 162, 163, 164, 165, 166, 167, 168, 169, 170, 171, 172, 173, 174, 175, 176, 177, 178, 179, 180, 181, 182, 183, 184, 185, 186, 187, 188, 189, 190, 191, 192, 193, 194, 195, 196, 197, 198, 199, 200],
      "AcquisitionTime": ["173353.125000", "173355.125000", "173357.125000", "173359.125000", "173401.125000", "173403.125000", "173405.125000", "173407.125000", "173409.125000", "173411.125000", "173413.125000", "173415.125000", "173417.125000", "173419.125000", "173421.125000", "173423.125000", "173425.125000", "173427.125000", "173429.125000", "173431.125000", "173433.125000", "173435.125000", "173437.125000", "173439.125000", "173441.125000", "173443.125000", "173445.125000", "173447.125000", "173449.125000", "173451.125000", "173453.125000", "173455.125000", "173457.125000", "173459.125000", "173501.125000", "173503.125000", "173505.125000", "173507.125000", "173509.125000", "173511.125000", "173513.125000", "173515.125000", "173517.125000", "173519.125000", "173521.125000", "173523.125000", "173525.125000", "173527.125000", "173529.125000", "173531.125000", "173533.125000", "173535.125000", "173537.125000", "173539.125000", "173541.125000", "173543.125000", "173545.125000", "173547.125000", "173549.125000", "173551.125000", "173553.125000", "173555.125000", "173557.125000", "173559.125000", "173601.125000", "173603.125000", "173605.125000", "173607.125000", "173609.125000", "173611.125000", "173613.125000", "173615.125000", "173617.125000", "173619.125000", "173621.125000", "173623.125000", "173625.125000", "173627.125000", "173629.125000", "173631.125000", "173633.125000", "173635.125000", "173637.125000", "173639.125000", "173641.125000", "173643.125000", "173645.125000", "173647.125000", "173649.125000", "173651.125000", "173653.125000", "173655.125000", "173657.125000", "173659.125000", "173701.125000", "173703.125000", "173705.125000", "173707.125000", "173709.125000", "173711.125000", "173713.125000", "173715.125000", "173717.125000", "173719.125000", "173721.125000", "173723.125000", "173725.125000", "173727.125000", "173729.125000", "173731.125000", "173733.125000", "173735.125000", "173737.125000", "173739.125000", "173741.125000", "173743.125000", "173745.125000", "173747.125000", "173749.125000", "173751.125000", "173753.125000", "173755.125000", "173757.125000", "173759.125000", "173801.125000", "173803.125000", "173805.125000", "173807.125000", "173809.125000", "173811.125000", "173813.125000", "173815.125000", "173817.125000", "173819.125000", "173821.125000", "173823.125000", "173825.125000", "173827.125000", "173829.125000", "173831.125000", "173833.125000", "173835.125000", "173837.125000", "173839.125000", "173841.125000", "173843.125000", "173845.125000", "173847.125000", "173849.125000", "173851.125000", "173853.125000", "173855.125000", "173857.125000", "173859.125000", "173901.125000", "173903.125000", "173905.125000", "173907.125000", "173909.125000", "173911.125000", "173913.125000", "173915.125000", "173917.125000", "173919.125000", "173921.125000", "173923.125000", "173925.125000", "173927.125000", "173929.125000", "173931.125000", "173933.125000", "173935.125000", "173937.125000", "173939.125000", "173941.125000", "173943.125000", "173945.125000", "173947.125000", "173949.125000", "173951.125000", "173953.125000", "173955.125000", "173957.125000", "173959.125000", "174001.125000", "174003.125000", "174005.125000", "174007.125000", "174009.125000", "174011.125000", "174013.125000", "174015.125000", "174017.125000", "174019.125000", "174021.125000", "174023.125000", "174025.125000", "174027.125000", "174029.125000", "174031.125000"],
      "ContentTime": ["173356.124000", "173358.120000", "173400.121000", "173402.121000", "173404.121000", "173406.120000", "173408.120000", "173410.120000", "173412.120000", "173414.120000", "173416.120000", "173418.121000", "173420.121000", "173422.121000", "173424.120000", "173426.120000", "173428.120000", "173430.120000", "173432.120000", "173434.120000", "173436.121000", "173438.121000", "173440.121000", "173442.120000", "173444.120000", "173446.120000", "173448.120000", "173450.120000", "173452.121000", "173454.121000", "173456.121000", "173458.120000", "173500.120000", "173502.120000", "173504.120000", "173506.120000", "173508.120000", "173510.121000", "173512.121000", "173514.121000", "173516.120000", "173518.120000", "173520.120000", "173522.120000", "173524.120000", "173526.120000", "173528.121000", "173530.121000", "173532.121000", "173534.120000", "173536.120000", "173538.120000", "173540.120000", "173542.120000", "173544.120000", "173546.121000", "173548.121000", "173550.121000", "173552.120000", "173554.120000", "173556.120000", "173558.120000", "173600.120000", "173602.121000", "173604.121000", "173606.121000", "173608.120000", "173610.120000", "173612.120000", "173614.120000", "173616.120000", "173618.120000", "173620.121000", "173622.121000", "173624.121000", "173626.120000", "173628.120000", "173630.120000", "173632.120000", "173634.120000", "173636.120000", "173638.121000", "173640.121000", "173642.121000", "173644.120000", "173646.120000", "173648.120000", "173650.120000", "173652.120000", "173654.120000", "173656.121000", "173658.121000", "173700.121000", "173702.120000", "173704.120000", "173706.120000", "173708.120000", "173710.120000", "173712.121000", "173714.121000", "173716.121000", "173718.120000", "173720.120000", "173722.120000", "173724.120000", "173726.120000", "173728.120000", "173730.121000", "173732.121000", "173734.121000", "173736.120000", "173738.120000", "173740.120000", "173742.120000", "173744.120000", "173746.120000", "173748.121000", "173750.121000", "173752.121000", "173754.120000", "173756.120000", "173758.120000", "173800.120000", "173802.120000", "173804.120000", "173806.121000", "173808.121000", "173810.121000", "173812.120000", "173814.120000", "173816.120000", "173818.120000", "173820.120000", "173822.121000", "173824.121000", "173826.121000", "173828.120000", "173830.120000", "173832.120000", "173834.120000", "173836.120000", "173838.120000", "173840.121000", "173842.121000", "173844.121000", "173846.120000", "173848.120000", "173850.120000", "173852.120000", "173854.120000", "173856.120000", "173858.121000", "173900.121000", "173902.121000", "173904.120000", "173906.120000", "173908.120000", "173910.120000", "173912.120000", "173914.121000", "173916.121000", "173918.121000", "173920.121000", "173922.120000", "173924.120000", "173926.120000", "173928.120000", "173930.120000", "173932.121000", "173934.121000", "173936.121000", "173938.120000", "173940.120000", "173942.120000", "173944.120000", "173946.120000", "173948.120000", "173950.121000", "173952.121000", "173954.121000", "173956.120000", "173958.120000", "174000.120000", "174002.120000", "174004.120000", "174006.120000", "174008.121000", "174010.121000", "174012.121000", "174014.120000", "174016.120000", "174018.120000", "174020.120000", "174022.120000", "174024.121000", "174026.121000", "174028.121000", "174030.121000", "174032.120000", "174033.866000"],
      "InstanceCreationTime": ["173356.124000", "173358.120000", "173400.121000", "173402.121000", "173404.121000", "173406.120000", "173408.120000", "173410.120000", "173412.120000", "173414.120000", "173416.120000", "173418.121000", "173420.121000", "173422.121000", "173424.120000", "173426.120000", "173428.120000", "173430.120000", "173432.120000", "173434.120000", "173436.121000", "173438.121000", "173440.121000", "173442.120000", "173444.120000", "173446.120000", "173448.120000", "173450.120000", "173452.121000", "173454.121000", "173456.121000", "173458.120000", "173500.120000", "173502.120000", "173504.120000", "173506.120000", "173508.120000", "173510.121000", "173512.121000", "173514.121000", "173516.120000", "173518.120000", "173520.120000", "173522.120000", "173524.120000", "173526.120000", "173528.121000", "173530.121000", "173532.121000", "173534.120000", "173536.120000", "173538.120000", "173540.120000", "173542.120000", "173544.120000", "173546.121000", "173548.121000", "173550.121000", "173552.120000", "173554.120000", "173556.120000", "173558.120000", "173600.120000", "173602.121000", "173604.121000", "173606.121000", "173608.120000", "173610.120000", "173612.120000", "173614.120000", "173616.120000", "173618.120000", "173620.121000", "173622.121000", "173624.121000", "173626.120000", "173628.120000", "173630.120000", "173632.120000", "173634.120000", "173636.120000", "173638.121000", "173640.121000", "173642.121000", "173644.120000", "173646.120000", "173648.120000", "173650.120000", "173652.120000", "173654.120000", "173656.121000", "173658.121000", "173700.121000", "173702.120000", "173704.120000", "173706.120000", "173708.120000", "173710.120000", "173712.121000", "173714.121000", "173716.121000", "173718.120000", "173720.120000", "173722.120000", "173724.120000", "173726.120000", "173728.120000", "173730.121000", "173732.121000", "173734.121000", "173736.120000", "173738.120000", "173740.120000", "173742.120000", "173744.120000", "173746.120000", "173748.121000", "173750.121000", "173752.121000", "173754.120000", "173756.120000", "173758.120000", "173800.120000", "173802.120000", "173804.120000", "173806.121000", "173808.121000", "173810.121000", "173812.120000", "173814.120000", "173816.120000", "173818.120000", "173820.120000", "173822.121000", "173824.121000", "173826.121000", "173828.120000", "173830.120000", "173832.120000", "173834.120000", "173836.120000", "173838.120000", "173840.121000", "173842.121000", "173844.121000", "173846.120000", "173848.120000", "173850.120000", "173852.120000", "173854.120000", "173856.120000", "173858.121000", "173900.121000", "173902.121000", "173904.120000", "173906.120000", "173908.120000", "173910.120000", "173912.120000", "173914.121000", "173916.121000", "173918.121000", "173920.121000", "173922.120000", "173924.120000", "173926.120000", "173928.120000", "173930.120000", "173932.121000", "173934.121000", "173936.121000", "173938.120000", "173940.120000", "173942.120000", "173944.120000", "173946.120000", "173948.120000", "173950.121000", "173952.121000", "173954.121000", "173956.120000", "173958.120000", "174000.120000", "174002.120000", "174004.120000", "174006.120000", "174008.121000", "174010.121000", "174012.121000", "174014.120000", "174016.120000", "174018.120000", "174020.120000", "174022.120000", "174024.121000", "174026.121000", "174028.121000", "174030.121000", "174032.120000", "174033.866000"],
      "InstanceNumber": [1, 2, 3, 4, 5, 6, 7, 8, 9, 10, 11, 12, 13, 14, 15, 16, 17, 18, 19, 20, 21, 22, 23, 24, 25, 26, 27, 28, 29, 30, 31, 32, 33, 34, 35, 36, 37, 38, 39, 40, 41, 42, 43, 44, 45, 46, 47, 48, 49, 50, 51, 52, 53, 54, 55, 56, 57, 58, 59, 60, 61, 62, 63, 64, 65, 66, 67, 68, 69, 70, 71, 72, 73, 74, 75, 76, 77, 78, 79, 80, 81, 82, 83, 84, 85, 86, 87, 88, 89, 90, 91, 92, 93, 94, 95, 96, 97, 98, 99, 100, 101, 102, 103, 104, 105, 106, 107, 108, 109, 110, 111, 112, 113, 114, 115, 116, 117, 118, 119, 120, 121, 122, 123, 124, 125, 126, 127, 128, 129, 130, 131, 132, 133, 134, 135, 136, 137, 138, 139, 140, 141, 142, 143, 144, 145, 146, 147, 148, 149, 150, 151, 152, 153, 154, 155, 156, 157, 158, 159, 160, 161, 162, 163, 164, 165, 166, 167, 168, 169, 170, 171, 172, 173, 174, 175, 176, 177, 178, 179, 180, 181, 182, 183, 184, 185, 186, 187, 188, 189, 190, 191, 192, 193, 194, 195, 196, 197, 198, 199, 200],
      "LargestImagePixelValue": [1771, 1644, 1628, 1633, 1618, 1616, 1742, 1623, 1620, 1622, 1635, 1647, 1621, 1643, 1628, 1618, 1714, 1621, 1630, 1645, 1727, 1785, 1619, 1644, 1634, 1643, 1628, 1637, 1625, 1787, 1627, 1637, 1636, 1614, 1638, 1612, 1676, 1643, 1638, 1713, 1611, 1654, 1629, 1635, 1644, 1610, 1788, 1931, 1705, 1606, 1641, 1619, 1633, 1992, 1647, 1627, 1639, 2011, 1648, 1616, 1617, 1628, 1630, 1637, 1655, 1629, 1846, 1629, 1625, 1637, 1629, 1616, 1642, 1695, 1630, 1614, 1628, 1625, 1635, 1681, 1627, 1626, 1641, 1632, 1631, 1742, 1622, 1620, 1643, 1614, 1619, 1633, 1636, 1621, 1625, 1616, 1613, 1611, 1623, 1618, 1609, 2047, 1638, 1615, 1633, 1613, 1615, 1631, 1616, 1618, 2278, 1621, 1613, 1606, 1630, 1613, 1624, 1620, 1618, 1624, 1626, 1629, 1630, 1626, 1635, 1621, 1629, 1875, 2313, 2134, 1625, 1613, 1612, 1630, 1604, 1858, 1606, 1607, 1625, 1637, 1610, 1600, 1897, 1601, 1936, 1611, 1612, 1616, 1627, 2195, 1621, 1611, 1608, 1622, 1630, 1615, 1606, 1607, 1616, 1639, 1979, 1618, 1598, 1589, 1635, 1623, 1617, 2110, 1624, 1617, 1611, 1610, 1604, 2170, 1620, 1601, 1614, 1629, 1618, 1603, 1617, 1954, 1594, 1594, 1585, 1626, 1637, 1629, 1616, 1598, 1601, 1591, 1614, 1866, 1612, 1607, 1600, 2186, 1863, 1613],
      "WindowCenter": [679.0, 677.0, 678.0, 678.0, 678.0, 677.0, 677.0, 676.0, 676.0, 677.0, 679.0, 679.0, 678.0, 678.0, 678.0, 678.0, 677.0, 677.0, 678.0, 679.0, 678.0, 677.0, 676.0, 677.0, 676.0, 677.0, 678.0, 678.0, 678.0, 679.0, 678.0, 678.0, 678.0, 678.0, 678.0, 677.0, 677.0, 677.0, 677.0, 678.0, 677.0, 677.0, 678.0, 678.0, 678.0, 677.0, 678.0, 678.0, 677.0, 676.0, 677.0, 678.0, 677.0, 677.0, 676.0, 677.0, 677.0, 678.0, 677.0, 677.0, 677.0, 677.0, 677.0, 676.0, 676.0, 676.0, 677.0, 676.0, 676.0, 676.0, 676.0, 676.0, 676.0, 676.0, 677.0, 677.0, 677.0, 677.0, 677.0, 677.0, 676.0, 677.0, 677.0, 677.0, 676.0, 677.0, 676.0, 676.0, 676.0, 676.0, 677.0, 677.0, 677.0, 677.0, 677.0, 677.0, 677.0, 677.0, 677.0, 676.0, 677.0, 678.0, 677.0, 676.0, 677.0, 676.0, 677.0, 678.0, 677.0, 676.0, 678.0, 676.0, 676.0, 676.0, 677.0, 676.0, 676.0, 676.0, 676.0, 677.0, 677.0, 677.0, 677.0, 677.0, 677.0, 677.0, 677.0, 677.0, 677.0, 676.0, 675.0, 676.0, 676.0, 676.0, 675.0, 675.0, 675.0, 675.0, 676.0, 677.0, 677.0, 677.0, 677.0, 676.0, 677.0, 676.0, 676.0, 676.0, 676.0, 677.0, 676.0, 676.0, 676.0, 677.0, 677.0, 677.0, 676.0, 676.0, 677.0, 677.0, 678.0, 677.0, 677.0, 677.0, 677.0, 677.0, 677.0, 677.0, 676.0, 676.0, 677.0, 677.0, 676.0, 678.0, 676.0, 675.0, 675.0, 676.0, 676.0, 676.0, 675.0, 676.0, 675.0, 676.0, 676.0, 676.0, 677.0, 677.0, 677.0, 677.0, 676.0, 676.0, 676.0, 678.0, 677.0, 677.0, 677.0, 677.0, 676.0, 676.0],
      "WindowWidth": [1491.0, 1484.0, 1486.0, 1487.0, 1486.0, 1484.0, 1483.0, 1482.0, 1482.0, 1484.0, 1489.0, 1490.0, 1488.0, 1488.0, 1486.0, 1486.0, 1485.0, 1484.0, 1487.0, 1489.0, 1489.0, 1485.0, 1482.0, 1483.0, 1482.0, 1484.0, 1487.0, 1488.0, 1487.0, 1489.0, 1487.0, 1487.0, 1486.0, 1487.0, 1488.0, 1485.0, 1485.0, 1485.0, 1484.0, 1486.0, 1485.0, 1485.0, 1486.0, 1487.0, 1486.0, 1485.0, 1486.0, 1486.0, 1483.0, 1481.0, 1485.0, 1487.0, 1484.0, 1484.0, 1482.0, 1484.0, 1484.0, 1486.0, 1483.0, 1483.0, 1485.0, 1485.0, 1483.0, 1482.0, 1482.0, 1481.0, 1484.0, 1480.0, 1480.0, 1480.0, 1481.0, 1480.0, 1481.0, 1481.0, 1483.0, 1484.0, 1484.0, 1483.0, 1485.0, 1484.0, 1482.0, 1483.0, 1484.0, 1483.0, 1482.0, 1484.0, 1482.0, 1481.0, 1481.0, 1481.0, 1484.0, 1485.0, 1485.0, 1484.0, 1485.0, 1484.0, 1483.0, 1485.0, 1485.0, 1483.0, 1483.0, 1487.0, 1483.0, 1483.0, 1484.0, 1482.0, 1484.0, 1486.0, 1483.0, 1480.0, 1487.0, 1480.0, 1480.0, 1481.0, 1484.0, 1482.0, 1480.0, 1481.0, 1482.0, 1483.0, 1484.0, 1483.0, 1484.0, 1483.0, 1483.0, 1483.0, 1485.0, 1485.0, 1484.0, 1482.0, 1479.0, 1480.0, 1481.0, 1482.0, 1478.0, 1479.0, 1478.0, 1478.0, 1480.0, 1483.0, 1485.0, 1484.0, 1483.0, 1480.0, 1484.0, 1482.0, 1482.0, 1481.0, 1480.0, 1484.0, 1480.0, 1481.0, 1482.0, 1483.0, 1485.0, 1483.0, 1482.0, 1482.0, 1484.0, 1483.0, 1486.0, 1483.0, 1483.0, 1483.0, 1484.0, 1485.0, 1483.0, 1485.0, 1480.0, 1482.0, 1484.0, 1484.0, 1482.0, 1486.0, 1480.0, 1479.0, 1479.0, 1481.0, 1481.0, 1480.0, 1478.0, 1482.0, 1479.0, 1480.0, 1480.0, 1481.0, 1483.0, 1483.0, 1485.0, 1484.0, 1482.0, 1481.0, 1482.0, 1486.0, 1484.0, 1484.0, 1483.0, 1485.0, 1481.0, 1480.0]
    },
    "slices": {}
  }
}