{
  "AcquisitionMatrixPE": 64,
  "AcquisitionNumber": 1,
  "AcquisitionTime": "16:48:55.977500",
  "BandwidthPerPixelPhaseEncode": 31.888,
  "BaseResolution": 64,
  "BodyPartExamined": "HEAD",
  "CoilCombinationMethod": "Sum of Squares",
  "ConsistencyInfo": "N4_VE11C_LATEST_20160120",
  "ConversionSoftware": "dcm2niix",
  "ConversionSoftwareVersion": "v1.0.20211006",
  "DerivedVendorReportedEchoSpacing": 0.000489996,
  "DeviceSerialNumber": "167048",
  "EchoTime": 0.03,
  "EchoTrainLength": 64,
  "EffectiveEchoSpacing": 0.000489996,
  "FlipAngle": 90,
  "ImageOrientationPatientDICOM": [0.999663, 0.00582473, 0.0252876, -0.00174481, 0.987365, -0.158453],
  "ImageType": [
    "ORIGINAL",
    "PRIMARY",
    "M",
    "ND",
    "NORM",
    "MOSAIC"
],
  "ImagingFrequency": 123.261,
  "InPlanePhaseEncodingDirectionDICOM": "COL",
  "InstitutionAddress": "Azinhaga Santa Comba StreetNo,Coimbra,District,PT,3000",
  "InstitutionName": "ICNAS",
  "MRAcquisitionType": "2D",
  "MagneticFieldStrength": 3,
  "Manufacturer": "Siemens",
  "ManufacturersModelName": "Prisma_fit",
  "MatrixCoilMode": "SENSE",
  "Modality": "MR",
  "PartialFourier": 1,
  "PatientPosition": "HFS",
  "PercentPhaseFOV": 100,
  "PercentSampling": 100,
  "PhaseEncodingDirection": "j-",
  "PhaseEncodingSteps": 64,
  "PhaseResolution": 1,
  "PixelBandwidth": 2365,
  "ProcedureStepDescription": "RM_FUNCIONAL",
  "ProtocolName": "rtfmri_neurofeedback_MTLoc",
  "PulseSequenceDetails": "%SiemensSeq%\\ep2d_bold",
  "ReceiveCoilActiveElements": "HE1-4",
  "ReceiveCoilName": "HeadNeck_20",
  "ReconMatrixPE": 64,
  "RepetitionTime": 2,
  "SAR": 0.144301,
  "ScanOptions": "FS",
  "ScanningSequence": "EP",
  "SequenceName": "*epfid2d1_64",
  "SequenceVariant": "SK",
  "SeriesDescription": "rtfmri_neurofeedback_MTLoc",
  "SeriesNumber": 5,
  "ShimSetting": [10174, 2139, 8362, 176, -26, 1, 36, -22],
  "SliceThickness": 3,
  "SliceTiming": [0, 1.02, 0.06, 1.08, 0.12, 1.14, 0.18, 1.2, 0.24, 1.26, 0.3, 1.32, 0.36, 1.38, 0.42, 1.44, 0.48, 1.5, 0.54, 1.56, 0.6, 1.62, 0.66, 1.68, 0.72, 1.74, 0.78, 1.8, 0.84, 1.86, 0.9, 1.92, 0.96],
  "SoftwareVersions": "syngo MR E11",
  "SpacingBetweenSlices": 3,
  "StationName": "MRC35377",
  "TaskName": "loc",
  "TotalReadoutTime": 0.0308698,
  "TxRefAmp": 299.291,
  "dcmmeta_affine": [
    [-3.9986519813537598, -0.006979240104556084, 0.07767311483621597, 125.68305206298828],
    [-0.023298919200897217, 3.949460029602051, -0.4750664234161377, -96.3434066772461],
    [0.10115040093660355, 0.6338120102882385, 2.961127281188965, -76.83560943603516],
    [0.0, 0.0, 0.0, 1.0]
],
  "dcmmeta_reorient_transform": [
    [0.0, -1.0, 0.0, 63.0],
    [1.0, 0.0, 0.0, 0.0],
    [0.0, 0.0, 1.0, 0.0],
    [0.0, 0.0, 0.0, 1.0]
],
  "dcmmeta_shape": [64, 64, 33, 200],
  "dcmmeta_slice_dim": 2,
  "dcmmeta_version": 0.6,
  "global": {
    "const": {
      "AccessionNumber": "0",
      "AcquisitionMatrix": [64, 0, 0, 64],
      "AngioFlag": "N",
      "BitsAllocated": 16,
      "BitsStored": 12,
      "BodyPartExamined": "HEAD",
      "Columns": 384,
      "EchoNumbers": 1,
      "EchoTime": 30.0,
      "EchoTrainLength": 64,
      "FlipAngle": 90.0,
      "HighBit": 11,
      "ImageOrientationPatient": [0.999663, 0.00582473, 0.0252876, -0.00174481, 0.987365, -0.158453],
      "ImagePositionPatient": [-763.911, -788.114, 48.3204],
      "ImageType": [
        "ORIGINAL",
        "PRIMARY",
        "M",
        "ND",
        "NORM",
        "MOSAIC"
],
      "ImagedNucleus": "1H",
      "ImagingFrequency": 123.261,
      "InPlanePhaseEncodingDirection": "COL",
      "MRAcquisitionType": "2D",
      "MagneticFieldStrength": 3.0,
      "Manufacturer": "SIEMENS",
      "ManufacturerModelName": "Prisma_fit",
      "Modality": "MR",
      "NumberOfAverages": 1.0,
      "NumberOfFrames": 1,
      "NumberOfPhaseEncodingSteps": 64,
      "PercentPhaseFieldOfView": 100.0,
      "PercentSampling": 100.0,
      "PerformedProcedureStepStartTime": "162212.255000",
      "PhotometricInterpretation": "MONOCHROME2",
      "PixelBandwidth": 2365.0,
      "PixelRepresentation": 0,
      "PixelSpacing": [4.0, 4.0],
      "ProtocolName": "rtfmri_neurofeedback_MTLoc",
      "RepetitionTime": 2000.0,
      "RequestAttributesSequence": [
        {
          "RequestedProcedureID": "1124",
          "ScheduledProcedureStepDescription": "RM_FUNCIONAL",
          "ScheduledProcedureStepID": "1"}
],
      "Rows": 384,
      "SAR": 0.144301,
      "SamplesPerPixel": 1,
      "ScanOptions": "FS",
      "ScanningSequence": "EP",
      "SequenceName": "*epfid2d1_64",
      "SequenceVariant": "SK",
      "SeriesDescription": "rtfmri_neurofeedback_MTLoc",
      "SeriesNumber": 5,
      "SeriesTime": "164858.368000",
      "SliceLocation": -57.3297,
      "SliceThickness": 3.0,
      "SmallestImagePixelValue": 0,
      "SoftwareVersions": "syngo MR E11",
      "SpacingBetweenSlices": 3.0,
      "SpecificCharacterSet": "ISO_IR 100",
      "StudyID": "1124",
      "StudyTime": "162210.555000",
      "TransmitCoilName": "Body",
      "VariableFlipAngleFlag": "N",
      "WindowCenterWidthExplanation": "Algo1",
      "dBdt": 0.0},
    "slices": {}
  },
  "time": {
    "samples": {
      "AcquisitionNumber": [1, 2, 3, 4, 5, 6, 7, 8, 9, 10, 11, 12, 13, 14, 15, 16, 17, 18, 19, 20, 21, 22, 23, 24, 25, 26, 27, 28, 29, 30, 31, 32, 33, 34, 35, 36, 37, 38, 39, 40, 41, 42, 43, 44, 45, 46, 47, 48, 49, 50, 51, 52, 53, 54, 55, 56, 57, 58, 59, 60, 61, 62, 63, 64, 65, 66, 67, 68, 69, 70, 71, 72, 73, 74, 75, 76, 77, 78, 79, 80, 81, 82, 83, 84, 85, 86, 87, 88, 89, 90, 91, 92, 93, 94, 95, 96, 97, 98, 99, 100, 101, 102, 103, 104, 105, 106, 107, 108, 109, 110, 111, 112, 113, 114, 115, 116, 117, 118, 119, 120, 121, 122, 123, 124, 125, 126, 127, 128, 129, 130, 131, 132, 133, 134, 135, 136, 137, 138, 139, 140, 141, 142, 143, 144, 145, 146, 147, 148, 149, 150, 151, 152, 153, 154, 155, 156, 157, 158, 159, 160, 161, 162, 163, 164, 165, 166, 167, 168, 169, 170, 171, 172, 173, 174, 175, 176, 177, 178, 179, 180, 181, 182, 183, 184, 185, 186, 187, 188, 189, 190, 191, 192, 193, 194, 195, 196, 197, 198, 199, 200],
      "AcquisitionTime": ["164855.977500", "164857.977500", "164859.977500", "164901.977500", "164903.977500", "164905.977500", "164907.977500", "164909.977500", "164911.977500", "164913.977500", "164915.977500", "164917.977500", "164919.977500", "164921.977500", "164923.977500", "164925.977500", "164927.977500", "164929.977500", "164931.977500", "164933.977500", "164935.977500", "164937.977500", "164939.977500", "164941.977500", "164943.977500", "164945.977500", "164947.977500", "164949.977500", "164951.977500", "164953.977500", "164955.977500", "164957.977500", "164959.977500", "165001.977500", "165003.977500", "165005.977500", "165007.977500", "165009.977500", "165011.977500", "165013.977500", "165015.977500", "165017.977500", "165019.977500", "165021.977500", "165023.977500", "165025.977500", "165027.977500", "165029.977500", "165031.977500", "165033.977500", "165035.977500", "165037.977500", "165039.977500", "165041.977500", "165043.977500", "165045.977500", "165047.977500", "165049.977500", "165051.977500", "165053.977500", "165055.977500", "165057.977500", "165059.977500", "165101.977500", "165103.977500", "165105.977500", "165107.977500", "165109.977500", "165111.977500", "165113.977500", "165115.977500", "165117.977500", "165119.977500", "165121.977500", "165123.977500", "165125.977500", "165127.977500", "165129.977500", "165131.977500", "165133.977500", "165135.977500", "165137.977500", "165139.977500", "165141.977500", "165143.977500", "165145.977500", "165147.977500", "165149.977500", "165151.977500", "165153.977500", "165155.977500", "165157.977500", "165159.977500", "165201.977500", "165203.977500", "165205.977500", "165207.977500", "165209.977500", "165211.977500", "165213.977500", "165215.977500", "165217.977500", "165219.977500", "165221.977500", "165223.977500", "165225.977500", "165227.977500", "165229.977500", "165231.977500", "165233.977500", "165235.977500", "165237.977500", "165239.977500", "165241.977500", "165243.977500", "165245.977500", "165247.977500", "165249.977500", "165251.977500", "165253.977500", "165255.977500", "165257.977500", "165259.977500", "165301.977500", "165303.977500", "165305.977500", "165307.977500", "165309.977500", "165311.977500", "165313.977500", "165315.977500", "165317.977500", "165319.977500", "165321.977500", "165323.977500", "165325.977500", "165327.977500", "165329.977500", "165331.977500", "165333.977500", "165335.977500", "165337.977500", "165339.977500", "165341.977500", "165343.977500", "165345.977500", "165347.977500", "165349.977500", "165351.977500", "165353.977500", "165355.977500", "165357.977500", "165359.977500", "165401.977500", "165403.977500", "165405.977500", "165407.977500", "165409.977500", "165411.977500", "165413.977500", "165415.977500", "165417.977500", "165419.977500", "165421.977500", "165423.977500", "165425.977500", "165427.977500", "165429.977500", "165431.977500", "165433.977500", "165435.977500", "165437.977500", "165439.977500", "165441.977500", "165443.977500", "165445.977500", "165447.977500", "165449.977500", "165451.977500", "165453.977500", "165455.977500", "165457.977500", "165459.977500", "165501.977500", "165503.977500", "165505.977500", "165507.977500", "165509.977500", "165511.977500", "165513.977500", "165515.977500", "165517.977500", "165519.977500", "165521.977500", "165523.977500", "165525.977500", "165527.977500", "165529.977500", "165531.977500", "165533.977500"],
      "ContentTime": ["164858.371000", "164900.366000", "164902.366000", "164904.367000", "164906.367000", "164908.366000", "164910.366000", "164912.366000", "164914.366000", "164916.366000", "164918.366000", "164920.366000", "164922.367000", "164924.367000", "164926.366000", "164928.366000", "164930.366000", "164932.366000", "164934.366000", "164936.366000", "164938.366000", "164940.367000", "164942.367000", "164944.366000", "164946.366000", "164948.366000", "164950.366000", "164952.366000", "164954.366000", "164956.366000", "164958.367000", "165000.366000", "165002.366000", "165004.366000", "165006.366000", "165008.366000", "165010.366000", "165012.366000", "165014.367000", "165016.367000", "165018.366000", "165020.366000", "165022.366000", "165024.366000", "165026.366000", "165028.366000", "165030.366000", "165032.367000", "165034.367000", "165036.366000", "165038.366000", "165040.366000", "165042.366000", "165044.366000", "165046.366000", "165048.366000", "165050.367000", "165052.367000", "165054.366000", "165056.366000", "165058.366000", "165100.366000", "165102.366000", "165104.366000", "165106.367000", "165108.367000", "165110.366000", "165112.366000", "165114.366000", "165116.366000", "165118.366000", "165120.366000", "165122.366000", "165124.367000", "165126.367000", "165128.366000", "165130.366000", "165132.366000", "165134.366000", "165136.366000", "165138.366000", "165140.366000", "165142.367000", "165144.367000", "165146.366000", "165148.366000", "165150.366000", "165152.366000", "165154.366000", "165156.366000", "165158.366000", "165200.367000", "165202.367000", "165204.366000", "165206.366000", "165208.366000", "165210.366000", "165212.366000", "165214.366000", "165216.367000", "165218.367000", "165220.366000", "165222.366000", "165224.366000", "165226.366000", "165228.366000", "165230.366000", "165232.366000", "165234.367000", "165236.367000", "165238.366000", "165240.366000", "165242.366000", "165244.382000", "165246.366000", "165248.366000", "165250.366000", "165252.367000", "165254.367000", "165256.366000", "165258.366000", "165300.366000", "165302.366000", "165304.366000", "165306.366000", "165308.366000", "165310.367000", "165312.367000", "165314.366000", "165316.366000", "165318.366000", "165320.366000", "165322.366000", "165324.366000", "165326.367000", "165328.367000", "165330.366000", "165332.366000", "165334.366000", "165336.366000", "165338.366000", "165340.366000", "165342.366000", "165344.367000", "165346.367000", "165348.366000", "165350.366000", "165352.366000", "165354.366000", "165356.366000", "165358.366000", "165400.366000", "165402.367000", "165404.367000", "165406.366000", "165408.366000", "165410.366000", "165412.366000", "165414.366000", "165416.366000", "165418.366000", "165420.367000", "165422.367000", "165424.366000", "165426.366000", "165428.366000", "165430.366000", "165432.366000", "165434.366000", "165436.367000", "165438.367000", "165440.366000", "165442.366000", "165444.366000", "165446.366000", "165448.366000", "165450.366000", "165452.366000", "165454.367000", "165456.367000", "165458.366000", "165500.366000", "165502.366000", "165504.366000", "165506.366000", "165508.366000", "165510.366000", "165512.367000", "165514.367000", "165516.366000", "165518.366000", "165520.366000", "165522.366000", "165524.366000", "165526.366000", "165528.366000", "165530.367000", "165532.367000", "165534.366000", "165536.103000"],
      "InstanceCreationTime": ["164858.371000", "164900.366000", "164902.366000", "164904.367000", "164906.367000", "164908.366000", "164910.366000", "164912.366000", "164914.366000", "164916.366000", "164918.366000", "164920.366000", "164922.367000", "164924.367000", "164926.366000", "164928.366000", "164930.366000", "164932.366000", "164934.366000", "164936.366000", "164938.366000", "164940.367000", "164942.367000", "164944.366000", "164946.366000", "164948.366000", "164950.366000", "164952.366000", "164954.366000", "164956.366000", "164958.367000", "165000.366000", "165002.366000", "165004.366000", "165006.366000", "165008.366000", "165010.366000", "165012.366000", "165014.367000", "165016.367000", "165018.366000", "165020.366000", "165022.366000", "165024.366000", "165026.366000", "165028.366000", "165030.366000", "165032.367000", "165034.367000", "165036.366000", "165038.366000", "165040.366000", "165042.366000", "165044.366000", "165046.366000", "165048.366000", "165050.367000", "165052.367000", "165054.366000", "165056.366000", "165058.366000", "165100.366000", "165102.366000", "165104.366000", "165106.367000", "165108.367000", "165110.366000", "165112.366000", "165114.366000", "165116.366000", "165118.366000", "165120.366000", "165122.366000", "165124.367000", "165126.367000", "165128.366000", "165130.366000", "165132.366000", "165134.366000", "165136.366000", "165138.366000", "165140.366000", "165142.367000", "165144.367000", "165146.366000", "165148.366000", "165150.366000", "165152.366000", "165154.366000", "165156.366000", "165158.366000", "165200.367000", "165202.367000", "165204.366000", "165206.366000", "165208.366000", "165210.366000", "165212.366000", "165214.366000", "165216.367000", "165218.367000", "165220.366000", "165222.366000", "165224.366000", "165226.366000", "165228.366000", "165230.366000", "165232.366000", "165234.367000", "165236.367000", "165238.366000", "165240.366000", "165242.366000", "165244.382000", "165246.366000", "165248.366000", "165250.366000", "165252.367000", "165254.367000", "165256.366000", "165258.366000", "165300.366000", "165302.366000", "165304.366000", "165306.366000", "165308.366000", "165310.367000", "165312.367000", "165314.366000", "165316.366000", "165318.366000", "165320.366000", "165322.366000", "165324.366000", "165326.367000", "165328.367000", "165330.366000", "165332.366000", "165334.366000", "165336.366000", "165338.366000", "165340.366000", "165342.366000", "165344.367000", "165346.367000", "165348.366000", "165350.366000", "165352.366000", "165354.366000", "165356.366000", "165358.366000", "165400.366000", "165402.367000", "165404.367000", "165406.366000", "165408.366000", "165410.366000", "165412.366000", "165414.366000", "165416.366000", "165418.366000", "165420.367000", "165422.367000", "165424.366000", "165426.366000", "165428.366000", "165430.366000", "165432.366000", "165434.366000", "165436.367000", "165438.367000", "165440.366000", "165442.366000", "165444.366000", "165446.366000", "165448.366000", "165450.366000", "165452.366000", "165454.367000", "165456.367000", "165458.366000", "165500.366000", "165502.366000", "165504.366000", "165506.366000", "165508.366000", "165510.366000", "165512.367000", "165514.367000", "165516.366000", "165518.366000", "165520.366000", "165522.366000", "165524.366000", "165526.366000", "165528.366000", "165530.367000", "165532.367000", "165534.366000", "165536.103000"],
      "InstanceNumber": [1, 2, 3, 4, 5, 6, 7, 8, 9, 10, 11, 12, 13, 14, 15, 16, 17, 18, 19, 20, 21, 22, 23, 24, 25, 26, 27, 28, 29, 30, 31, 32, 33, 34, 35, 36, 37, 38, 39, 40, 41, 42, 43, 44, 45, 46, 47, 48, 49, 50, 51, 52, 53, 54, 55, 56, 57, 58, 59, 60, 61, 62, 63, 64, 65, 66, 67, 68, 69, 70, 71, 72, 73, 74, 75, 76, 77, 78, 79, 80, 81, 82, 83, 84, 85, 86, 87, 88, 89, 90, 91, 92, 93, 94, 95, 96, 97, 98, 99, 100, 101, 102, 103, 104, 105, 106, 107, 108, 109, 110, 111, 112, 113, 114, 115, 116, 117, 118, 119, 120, 121, 122, 123, 124, 125, 126, 127, 128, 129, 130, 131, 132, 133, 134, 135, 136, 137, 138, 139, 140, 141, 142, 143, 144, 145, 146, 147, 148, 149, 150, 151, 152, 153, 154, 155, 156, 157, 158, 159, 160, 161, 162, 163, 164, 165, 166, 167, 168, 169, 170, 171, 172, 173, 174, 175, 176, 177, 178, 179, 180, 181, 182, 183, 184, 185, 186, 187, 188, 189, 190, 191, 192, 193, 194, 195, 196, 197, 198, 199, 200],
      "LargestImagePixelValue": [1568, 1400, 1584, 1922, 1782, 1602, 1288, 1606, 1834, 1476, 1303, 1556, 1591, 1311, 1354, 1645, 1484, 1401, 1528, 1570, 1404, 1587, 1711, 1552, 1273, 1589, 1644, 1456, 1677, 1608, 1678, 1309, 1493, 1843, 1317, 1791, 1182, 1705, 1494, 1489, 1666, 1246, 1569, 1380, 1695, 1483, 1340, 1591, 1275, 1607, 1393, 1435, 1465, 1244, 1786, 1406, 1605, 1210, 1426, 1383, 1676, 1849, 1198, 1547, 1271, 1601, 1446, 1653, 1245, 1497, 1442, 1712, 1777, 1405, 1498, 1380, 1297, 1515, 1361, 1519, 1773, 1256, 1269, 1445, 1375, 1544, 1646, 1377, 1472, 1530, 1540, 1275, 1494, 1701, 1395, 1310, 1375, 1434, 1360, 1504, 1483, 1315, 1532, 1714, 1195, 1544, 1661, 1501, 1465, 1296, 1414, 1466, 1461, 1201, 1314, 1835, 1596, 1394, 1545, 1608, 1194, 1525, 1662, 1368, 1372, 1643, 1594, 1259, 1412, 1525, 1546, 1434, 1337, 1481, 1605, 1527, 1313, 1380, 1591, 1326, 1402, 1560, 1205, 1435, 1785, 1538, 1439, 1500, 1470, 1518, 1522, 1390, 1406, 1387, 1465, 1459, 1411, 1539, 1770, 1615, 1503, 1264, 1249, 1310, 1314, 1377, 1429, 1506, 1830, 1419, 1263, 1429, 1455, 1701, 1515, 1493, 1351, 1402, 1441, 1626, 1689, 1502, 1429, 1302, 1434, 1508, 1336, 1273, 1550, 1617, 1597, 1209, 1409, 1747, 1706, 1405, 1259, 1301, 1479, 1421],
      "WindowCenter": [597.0, 594.0, 594.0, 594.0, 593.0, 592.0, 590.0, 592.0, 593.0, 592.0, 591.0, 592.0, 592.0, 591.0, 592.0, 593.0, 592.0, 592.0, 593.0, 593.0, 592.0, 592.0, 594.0, 593.0, 591.0, 593.0, 595.0, 593.0, 593.0, 592.0, 593.0, 591.0, 593.0, 594.0, 591.0, 594.0, 591.0, 594.0, 592.0, 593.0, 594.0, 590.0, 593.0, 593.0, 594.0, 592.0, 591.0, 593.0, 590.0, 592.0, 591.0, 592.0, 592.0, 590.0, 594.0, 592.0, 592.0, 590.0, 592.0, 591.0, 592.0, 592.0, 590.0, 592.0, 590.0, 592.0, 591.0, 593.0, 591.0, 593.0, 592.0, 593.0, 593.0, 591.0, 591.0, 591.0, 591.0, 591.0, 591.0, 592.0, 594.0, 590.0, 591.0, 592.0, 592.0, 593.0, 593.0, 591.0, 591.0, 592.0, 592.0, 590.0, 592.0, 593.0, 591.0, 591.0, 592.0, 592.0, 592.0, 594.0, 593.0, 591.0, 592.0, 593.0, 590.0, 593.0, 592.0, 591.0, 591.0, 591.0, 591.0, 591.0, 592.0, 591.0, 592.0, 594.0, 593.0, 592.0, 592.0, 592.0, 590.0, 592.0, 593.0, 592.0, 591.0, 592.0, 592.0, 590.0, 591.0, 592.0, 593.0, 592.0, 591.0, 592.0, 593.0, 592.0, 590.0, 591.0, 594.0, 591.0, 592.0, 593.0, 590.0, 592.0, 593.0, 592.0, 591.0, 591.0, 592.0, 592.0, 591.0, 591.0, 591.0, 591.0, 591.0, 591.0, 591.0, 593.0, 593.0, 592.0, 591.0, 589.0, 589.0, 590.0, 591.0, 592.0, 591.0, 591.0, 592.0, 591.0, 590.0, 592.0, 591.0, 592.0, 592.0, 592.0, 591.0, 592.0, 593.0, 593.0, 593.0, 591.0, 591.0, 590.0, 591.0, 592.0, 592.0, 591.0, 592.0, 592.0, 592.0, 590.0, 592.0, 594.0, 593.0, 591.0, 590.0, 590.0, 591.0, 592.0],
      "WindowWidth": [1261.0, 1255.0, 1256.0, 1255.0, 1253.0, 1250.0, 1247.0, 1251.0, 1252.0, 1249.0, 1249.0, 1250.0, 1251.0, 1248.0, 1250.0, 1252.0, 1251.0, 1251.0, 1253.0, 1253.0, 1250.0, 1251.0, 1253.0, 1252.0, 1248.0, 1253.0, 1256.0, 1252.0, 1252.0, 1251.0, 1252.0, 1248.0, 1251.0, 1254.0, 1249.0, 1254.0, 1249.0, 1254.0, 1251.0, 1252.0, 1254.0, 1246.0, 1252.0, 1252.0, 1254.0, 1251.0, 1249.0, 1252.0, 1247.0, 1251.0, 1248.0, 1250.0, 1249.0, 1246.0, 1254.0, 1250.0, 1251.0, 1247.0, 1250.0, 1248.0, 1250.0, 1251.0, 1245.0, 1249.0, 1246.0, 1250.0, 1249.0, 1252.0, 1249.0, 1253.0, 1251.0, 1252.0, 1253.0, 1248.0, 1249.0, 1248.0, 1247.0, 1249.0, 1248.0, 1250.0, 1253.0, 1247.0, 1248.0, 1250.0, 1250.0, 1251.0, 1252.0, 1247.0, 1248.0, 1249.0, 1250.0, 1247.0, 1250.0, 1252.0, 1249.0, 1248.0, 1250.0, 1251.0, 1250.0, 1253.0, 1252.0, 1248.0, 1250.0, 1253.0, 1248.0, 1252.0, 1249.0, 1249.0, 1248.0, 1247.0, 1249.0, 1248.0, 1251.0, 1248.0, 1250.0, 1254.0, 1252.0, 1249.0, 1249.0, 1251.0, 1246.0, 1250.0, 1251.0, 1249.0, 1248.0, 1250.0, 1251.0, 1247.0, 1249.0, 1251.0, 1251.0, 1249.0, 1248.0, 1250.0, 1252.0, 1250.0, 1247.0, 1248.0, 1254.0, 1249.0, 1250.0, 1252.0, 1246.0, 1250.0, 1253.0, 1250.0, 1248.0, 1249.0, 1250.0, 1249.0, 1248.0, 1249.0, 1248.0, 1249.0, 1249.0, 1247.0, 1249.0, 1251.0, 1251.0, 1250.0, 1249.0, 1245.0, 1244.0, 1247.0, 1249.0, 1250.0, 1249.0, 1249.0, 1250.0, 1248.0, 1247.0, 1249.0, 1248.0, 1250.0, 1250.0, 1250.0, 1249.0, 1250.0, 1252.0, 1253.0, 1253.0, 1249.0, 1247.0, 1246.0, 1248.0, 1251.0, 1251.0, 1249.0, 1251.0, 1250.0, 1249.0, 1246.0, 1250.0, 1253.0, 1253.0, 1248.0, 1245.0, 1245.0, 1249.0, 1250.0]
    },
    "slices": {}
  }
}