{
  "AcquisitionMatrixPE": 64,
  "AcquisitionNumber": 1,
  "AcquisitionTime": "17:19:25.925000",
  "BandwidthPerPixelPhaseEncode": 31.888,
  "BaseResolution": 64,
  "BodyPartExamined": "HEAD",
  "CoilCombinationMethod": "Sum of Squares",
  "ConsistencyInfo": "N4_VE11C_LATEST_20160120",
  "ConversionSoftware": "dcm2niix",
  "ConversionSoftwareVersion": "v1.0.20211006",
  "DerivedVendorReportedEchoSpacing": 0.000489996,
  "DeviceSerialNumber": "167048",
  "EchoTime": 0.03,
  "EchoTrainLength": 64,
  "EffectiveEchoSpacing": 0.000489996,
  "FlipAngle": 90,
  "ImageOrientationPatientDICOM": [0.999663, 0.00582473, 0.0252876, -0.00174481, 0.987365, -0.158453],
  "ImageType": [
    "ORIGINAL",
    "PRIMARY",
    "M",
    "ND",
    "NORM",
    "MOSAIC"
],
  "ImagingFrequency": 123.261,
  "InPlanePhaseEncodingDirectionDICOM": "COL",
  "InstitutionAddress": "Azinhaga Santa Comba StreetNo,Coimbra,District,PT,3000",
  "InstitutionName": "ICNAS",
  "MRAcquisitionType": "2D",
  "MagneticFieldStrength": 3,
  "Manufacturer": "Siemens",
  "ManufacturersModelName": "Prisma_fit",
  "MatrixCoilMode": "SENSE",
  "Modality": "MR",
  "PartialFourier": 1,
  "PatientPosition": "HFS",
  "PercentPhaseFOV": 100,
  "PercentSampling": 100,
  "PhaseEncodingDirection": "j-",
  "PhaseEncodingSteps": 64,
  "PhaseResolution": 1,
  "PixelBandwidth": 2365,
  "ProcedureStepDescription": "RM_FUNCIONAL",
  "ProtocolName": "rtfmri_neurofeedback_MTRun2",
  "PulseSequenceDetails": "%SiemensSeq%\\ep2d_bold",
  "ReceiveCoilActiveElements": "HE1-4",
  "ReceiveCoilName": "HeadNeck_20",
  "ReconMatrixPE": 64,
  "RepetitionTime": 2,
  "SAR": 0.144446,
  "ScanOptions": "FS",
  "ScanningSequence": "EP",
  "SequenceName": "*epfid2d1_64",
  "SequenceVariant": "SK",
  "SeriesDescription": "rtfmri_neurofeedback_MTRun2",
  "SeriesNumber": 7,
  "ShimSetting": [10174, 2139, 8362, 176, -26, 1, 36, -22],
  "SliceThickness": 3,
  "SliceTiming": [0, 1.02, 0.06, 1.08, 0.12, 1.14, 0.18, 1.2, 0.24, 1.26, 0.3, 1.32, 0.36, 1.38, 0.42, 1.44, 0.48, 1.5, 0.54, 1.56, 0.6, 1.62, 0.66, 1.68, 0.72, 1.74, 0.78, 1.8, 0.84, 1.86, 0.9, 1.92, 0.96],
  "SoftwareVersions": "syngo MR E11",
  "SpacingBetweenSlices": 3,
  "StationName": "MRC35377",
  "TaskName": "nf",
  "TotalReadoutTime": 0.0308698,
  "TxRefAmp": 299.291,
  "dcmmeta_affine": [
    [-3.9986519813537598, -0.006979240104556084, 0.07767311483621597, 125.68305206298828],
    [-0.023298919200897217, 3.949460029602051, -0.4750664234161377, -96.3434066772461],
    [0.10115040093660355, 0.6338120102882385, 2.961127281188965, -76.83560943603516],
    [0.0, 0.0, 0.0, 1.0]
],
  "dcmmeta_reorient_transform": [
    [0.0, -1.0, 0.0, 63.0],
    [1.0, 0.0, 0.0, 0.0],
    [0.0, 0.0, 1.0, 0.0],
    [0.0, 0.0, 0.0, 1.0]
],
  "dcmmeta_shape": [64, 64, 33, 275],
  "dcmmeta_slice_dim": 2,
  "dcmmeta_version": 0.6,
  "global": {
    "const": {
      "AccessionNumber": "0",
      "AcquisitionMatrix": [64, 0, 0, 64],
      "AngioFlag": "N",
      "BitsAllocated": 16,
      "BitsStored": 12,
      "BodyPartExamined": "HEAD",
      "Columns": 384,
      "EchoNumbers": 1,
      "EchoTime": 30.0,
      "EchoTrainLength": 64,
      "FlipAngle": 90.0,
      "HighBit": 11,
      "ImageOrientationPatient": [0.999663, 0.00582473, 0.0252876, -0.00174481, 0.987365, -0.158453],
      "ImagePositionPatient": [-763.911, -788.114, 48.3204],
      "ImageType": [
        "ORIGINAL",
        "PRIMARY",
        "M",
        "ND",
        "NORM",
        "MOSAIC"
],
      "ImagedNucleus": "1H",
      "ImagingFrequency": 123.261,
      "InPlanePhaseEncodingDirection": "COL",
      "MRAcquisitionType": "2D",
      "MagneticFieldStrength": 3.0,
      "Manufacturer": "SIEMENS",
      "ManufacturerModelName": "Prisma_fit",
      "Modality": "MR",
      "NumberOfAverages": 1.0,
      "NumberOfFrames": 1,
      "NumberOfPhaseEncodingSteps": 64,
      "PercentPhaseFieldOfView": 100.0,
      "PercentSampling": 100.0,
      "PerformedProcedureStepStartTime": "162212.255000",
      "PhotometricInterpretation": "MONOCHROME2",
      "PixelBandwidth": 2365.0,
      "PixelRepresentation": 0,
      "PixelSpacing": [4.0, 4.0],
      "ProtocolName": "rtfmri_neurofeedback_MTRun2",
      "RepetitionTime": 2000.0,
      "RequestAttributesSequence": [
        {
          "RequestedProcedureID": "1124",
          "ScheduledProcedureStepDescription": "RM_FUNCIONAL",
          "ScheduledProcedureStepID": "1"}
],
      "Rows": 384,
      "SAR": 0.144446,
      "SamplesPerPixel": 1,
      "ScanOptions": "FS",
      "ScanningSequence": "EP",
      "SequenceName": "*epfid2d1_64",
      "SequenceVariant": "SK",
      "SeriesDescription": "rtfmri_neurofeedback_MTRun2",
      "SeriesNumber": 7,
      "SeriesTime": "171929.028000",
      "SliceLocation": -57.3297,
      "SliceThickness": 3.0,
      "SmallestImagePixelValue": 0,
      "SoftwareVersions": "syngo MR E11",
      "SpacingBetweenSlices": 3.0,
      "SpecificCharacterSet": "ISO_IR 100",
      "StudyID": "1124",
      "StudyTime": "162210.555000",
      "TransmitCoilName": "Body",
      "VariableFlipAngleFlag": "N",
      "WindowCenterWidthExplanation": "Algo1",
      "dBdt": 0.0},
    "slices": {}
  },
  "time": {
    "samples": {
      "AcquisitionNumber": [1, 2, 3, 4, 5, 6, 7, 8, 9, 10, 11, 12, 13, 14, 15, 16, 17, 18, 19, 20, 21, 22, 23, 24, 25, 26, 27, 28, 29, 30, 31, 32, 33, 34, 35, 36, 37, 38, 39, 40, 41, 42, 43, 44, 45, 46, 47, 48, 49, 50, 51, 52, 53, 54, 55, 56, 57, 58, 59, 60, 61, 62, 63, 64, 65, 66, 67, 68, 69, 70, 71, 72, 73, 74, 75, 76, 77, 78, 79, 80, 81, 82, 83, 84, 85, 86, 87, 88, 89, 90, 91, 92, 93, 94, 95, 96, 97, 98, 99, 100, 101, 102, 103, 104, 105, 106, 107, 108, 109, 110, 111, 112, 113, 114, 115, 116, 117, 118, 119, 120, 121, 122, 123, 124, 125, 126, 127, 128, 129, 130, 131, 132, 133, 134, 135, 136, 137, 138, 139, 140, 141, 142, 143, 144, 145, 146, 147, 148, 149, 150, 151, 152, 153, 154, 155, 156, 157, 158, 159, 160, 161, 162, 163, 164, 165, 166, 167, 168, 169, 170, 171, 172, 173, 174, 175, 176, 177, 178, 179, 180, 181, 182, 183, 184, 185, 186, 187, 188, 189, 190, 191, 192, 193, 194, 195, 196, 197, 198, 199, 200, 201, 202, 203, 204, 205, 206, 207, 208, 209, 210, 211, 212, 213, 214, 215, 216, 217, 218, 219, 220, 221, 222, 223, 224, 225, 226, 227, 228, 229, 230, 231, 232, 233, 234, 235, 236, 237, 238, 239, 240, 241, 242, 243, 244, 245, 246, 247, 248, 249, 250, 251, 252, 253, 254, 255, 256, 257, 258, 259, 260, 261, 262, 263, 264, 265, 266, 267, 268, 269, 270, 271, 272, 273, 274, 275],
      "AcquisitionTime": ["171925.925000", "171927.925000", "171929.925000", "171931.925000", "171933.925000", "171935.925000", "171937.925000", "171939.925000", "171941.925000", "171943.925000", "171945.925000", "171947.925000", "171949.925000", "171951.925000", "171953.925000", "171955.925000", "171957.925000", "171959.925000", "172001.925000", "172003.925000", "172005.925000", "172007.925000", "172009.925000", "172011.925000", "172013.925000", "172015.925000", "172017.925000", "172019.925000", "172021.925000", "172023.925000", "172025.925000", "172027.925000", "172029.925000", "172031.925000", "172033.925000", "172035.925000", "172037.925000", "172039.925000", "172041.925000", "172043.925000", "172045.925000", "172047.925000", "172049.925000", "172051.925000", "172053.925000", "172055.925000", "172057.925000", "172059.925000", "172101.925000", "172103.925000", "172105.925000", "172107.925000", "172109.925000", "172111.925000", "172113.925000", "172115.925000", "172117.925000", "172119.925000", "172121.925000", "172123.925000", "172125.925000", "172127.925000", "172129.925000", "172131.925000", "172133.925000", "172135.925000", "172137.925000", "172139.925000", "172141.925000", "172143.925000", "172145.925000", "172147.925000", "172149.925000", "172151.925000", "172153.925000", "172155.925000", "172157.925000", "172159.925000", "172201.925000", "172203.925000", "172205.925000", "172207.925000", "172209.925000", "172211.925000", "172213.925000", "172215.925000", "172217.925000", "172219.925000", "172221.925000", "172223.925000", "172225.925000", "172227.925000", "172229.925000", "172231.925000", "172233.925000", "172235.925000", "172237.925000", "172239.925000", "172241.925000", "172243.925000", "172245.925000", "172247.925000", "172249.925000", "172251.925000", "172253.925000", "172255.925000", "172257.925000", "172259.925000", "172301.925000", "172303.925000", "172305.925000", "172307.925000", "172309.925000", "172311.925000", "172313.925000", "172315.925000", "172317.925000", "172319.925000", "172321.925000", "172323.925000", "172325.925000", "172327.925000", "172329.925000", "172331.925000", "172333.925000", "172335.925000", "172337.925000", "172339.925000", "172341.925000", "172343.925000", "172345.925000", "172347.925000", "172349.925000", "172351.925000", "172353.925000", "172355.925000", "172357.925000", "172359.925000", "172401.925000", "172403.925000", "172405.925000", "172407.925000", "172409.925000", "172411.925000", "172413.925000", "172415.925000", "172417.925000", "172419.925000", "172421.925000", "172423.925000", "172425.925000", "172427.925000", "172429.925000", "172431.925000", "172433.925000", "172435.925000", "172437.925000", "172439.925000", "172441.925000", "172443.925000", "172445.925000", "172447.925000", "172449.925000", "172451.925000", "172453.925000", "172455.925000", "172457.925000", "172459.925000", "172501.925000", "172503.925000", "172505.925000", "172507.925000", "172509.925000", "172511.925000", "172513.925000", "172515.925000", "172517.925000", "172519.925000", "172521.925000", "172523.925000", "172525.925000", "172527.925000", "172529.925000", "172531.925000", "172533.925000", "172535.925000", "172537.925000", "172539.925000", "172541.925000", "172543.925000", "172545.925000", "172547.925000", "172549.925000", "172551.925000", "172553.925000", "172555.925000", "172557.925000", "172559.925000", "172601.925000", "172603.925000", "172605.925000", "172607.925000", "172609.925000", "172611.925000", "172613.925000", "172615.925000", "172617.925000", "172619.925000", "172621.925000", "172623.925000", "172625.925000", "172627.925000", "172629.925000", "172631.925000", "172633.925000", "172635.925000", "172637.925000", "172639.925000", "172641.925000", "172643.925000", "172645.925000", "172647.925000", "172649.925000", "172651.925000", "172653.925000", "172655.925000", "172657.925000", "172659.925000", "172701.925000", "172703.925000", "172705.925000", "172707.925000", "172709.925000", "172711.925000", "172713.925000", "172715.925000", "172717.925000", "172719.925000", "172721.925000", "172723.925000", "172725.925000", "172727.925000", "172729.925000", "172731.925000", "172733.925000", "172735.925000", "172737.925000", "172739.925000", "172741.925000", "172743.925000", "172745.925000", "172747.925000", "172749.925000", "172751.925000", "172753.925000", "172755.925000", "172757.925000", "172759.925000", "172801.925000", "172803.925000", "172805.925000", "172807.925000", "172809.925000", "172811.925000", "172813.925000", "172815.925000", "172817.925000", "172819.925000", "172821.925000", "172823.925000", "172825.925000", "172827.925000", "172829.925000", "172831.925000", "172833.925000"],
      "ContentTime": ["171929.031000", "171931.026000", "171933.026000", "171935.026000", "171937.026000", "171939.025000", "171941.026000", "171943.026000", "171945.026000", "171947.026000", "171949.026000", "171951.026000", "171953.026000", "171955.026000", "171957.025000", "171959.026000", "172001.026000", "172003.026000", "172005.040000", "172007.026000", "172009.026000", "172011.026000", "172013.026000", "172015.026000", "172017.026000", "172019.026000", "172021.026000", "172023.026000", "172025.026000", "172027.026000", "172029.026000", "172031.025000", "172033.026000", "172035.026000", "172037.026000", "172039.026000", "172041.026000", "172043.026000", "172045.026000", "172047.026000", "172049.025000", "172051.026000", "172053.026000", "172055.026000", "172057.026000", "172059.026000", "172101.026000", "172103.026000", "172105.026000", "172107.025000", "172109.026000", "172111.026000", "172113.026000", "172115.026000", "172117.026000", "172119.026000", "172121.026000", "172123.026000", "172125.026000", "172127.026000", "172129.026000", "172131.026000", "172133.026000", "172135.026000", "172137.026000", "172139.026000", "172141.025000", "172143.026000", "172145.026000", "172147.026000", "172149.026000", "172151.026000", "172153.026000", "172155.026000", "172157.026000", "172159.025000", "172201.026000", "172203.026000", "172205.026000", "172207.026000", "172209.026000", "172211.026000", "172213.026000", "172215.026000", "172217.025000", "172219.026000", "172221.026000", "172223.026000", "172225.026000", "172227.026000", "172229.026000", "172231.026000", "172233.026000", "172235.026000", "172237.026000", "172239.026000", "172241.026000", "172243.026000", "172245.026000", "172247.026000", "172249.026000", "172251.025000", "172253.026000", "172255.026000", "172257.026000", "172259.026000", "172301.026000", "172303.026000", "172305.026000", "172307.026000", "172309.025000", "172311.026000", "172313.026000", "172315.026000", "172317.026000", "172319.026000", "172321.026000", "172323.026000", "172325.026000", "172327.025000", "172329.026000", "172331.026000", "172333.026000", "172335.026000", "172337.026000", "172339.026000", "172341.026000", "172343.026000", "172345.026000", "172347.026000", "172349.026000", "172351.026000", "172353.026000", "172355.026000", "172357.026000", "172359.026000", "172401.025000", "172403.026000", "172405.026000", "172407.026000", "172409.026000", "172411.026000", "172413.026000", "172415.026000", "172417.026000", "172419.025000", "172421.026000", "172423.026000", "172425.026000", "172427.026000", "172429.026000", "172431.026000", "172433.026000", "172435.026000", "172437.026000", "172439.026000", "172441.026000", "172443.026000", "172445.026000", "172447.026000", "172449.026000", "172451.026000", "172453.026000", "172455.026000", "172457.026000", "172459.026000", "172501.026000", "172503.026000", "172505.026000", "172507.026000", "172509.026000", "172511.025000", "172513.026000", "172515.026000", "172517.026000", "172519.026000", "172521.026000", "172523.026000", "172525.026000", "172527.026000", "172529.025000", "172531.026000", "172533.026000", "172535.026000", "172537.026000", "172539.026000", "172541.026000", "172543.026000", "172545.026000", "172547.026000", "172549.026000", "172551.026000", "172553.026000", "172555.026000", "172557.026000", "172559.026000", "172601.026000", "172603.026000", "172605.026000", "172607.026000", "172609.026000", "172611.026000", "172613.026000", "172615.026000", "172617.026000", "172619.026000", "172621.025000", "172623.026000", "172625.026000", "172627.026000", "172629.026000", "172631.026000", "172633.026000", "172635.026000", "172637.026000", "172639.025000", "172641.026000", "172643.026000", "172645.026000", "172647.026000", "172649.026000", "172651.026000", "172653.026000", "172655.026000", "172657.026000", "172659.026000", "172701.026000", "172703.026000", "172705.026000", "172707.026000", "172709.026000", "172711.026000", "172713.026000", "172715.026000", "172717.026000", "172719.026000", "172721.026000", "172723.026000", "172725.026000", "172727.026000", "172729.026000", "172731.025000", "172733.026000", "172735.026000", "172737.026000", "172739.026000", "172741.026000", "172743.026000", "172745.026000", "172747.026000", "172749.025000", "172751.026000", "172753.026000", "172755.026000", "172757.026000", "172759.026000", "172801.026000", "172803.026000", "172805.026000", "172807.026000", "172809.026000", "172811.026000", "172813.026000", "172815.026000", "172817.026000", "172819.026000", "172821.026000", "172823.025000", "172825.026000", "172827.026000", "172829.026000", "172831.026000", "172833.026000", "172835.026000", "172836.747000"],
      "InstanceCreationTime": ["171929.031000", "171931.026000", "171933.026000", "171935.026000", "171937.026000", "171939.025000", "171941.026000", "171943.026000", "171945.026000", "171947.026000", "171949.026000", "171951.026000", "171953.026000", "171955.026000", "171957.025000", "171959.026000", "172001.026000", "172003.026000", "172005.040000", "172007.026000", "172009.026000", "172011.026000", "172013.026000", "172015.026000", "172017.026000", "172019.026000", "172021.026000", "172023.026000", "172025.026000", "172027.026000", "172029.026000", "172031.025000", "172033.026000", "172035.026000", "172037.026000", "172039.026000", "172041.026000", "172043.026000", "172045.026000", "172047.026000", "172049.025000", "172051.026000", "172053.026000", "172055.026000", "172057.026000", "172059.026000", "172101.026000", "172103.026000", "172105.026000", "172107.025000", "172109.026000", "172111.026000", "172113.026000", "172115.026000", "172117.026000", "172119.026000", "172121.026000", "172123.026000", "172125.026000", "172127.026000", "172129.026000", "172131.026000", "172133.026000", "172135.026000", "172137.026000", "172139.026000", "172141.025000", "172143.026000", "172145.026000", "172147.026000", "172149.026000", "172151.026000", "172153.026000", "172155.026000", "172157.026000", "172159.025000", "172201.026000", "172203.026000", "172205.026000", "172207.026000", "172209.026000", "172211.026000", "172213.026000", "172215.026000", "172217.025000", "172219.026000", "172221.026000", "172223.026000", "172225.026000", "172227.026000", "172229.026000", "172231.026000", "172233.026000", "172235.026000", "172237.026000", "172239.026000", "172241.026000", "172243.026000", "172245.026000", "172247.026000", "172249.026000", "172251.025000", "172253.026000", "172255.026000", "172257.026000", "172259.026000", "172301.026000", "172303.026000", "172305.026000", "172307.026000", "172309.025000", "172311.026000", "172313.026000", "172315.026000", "172317.026000", "172319.026000", "172321.026000", "172323.026000", "172325.026000", "172327.025000", "172329.026000", "172331.026000", "172333.026000", "172335.026000", "172337.026000", "172339.026000", "172341.026000", "172343.026000", "172345.026000", "172347.026000", "172349.026000", "172351.026000", "172353.026000", "172355.026000", "172357.026000", "172359.026000", "172401.025000", "172403.026000", "172405.026000", "172407.026000", "172409.026000", "172411.026000", "172413.026000", "172415.026000", "172417.026000", "172419.025000", "172421.026000", "172423.026000", "172425.026000", "172427.026000", "172429.026000", "172431.026000", "172433.026000", "172435.026000", "172437.026000", "172439.026000", "172441.026000", "172443.026000", "172445.026000", "172447.026000", "172449.026000", "172451.026000", "172453.026000", "172455.026000", "172457.026000", "172459.026000", "172501.026000", "172503.026000", "172505.026000", "172507.026000", "172509.026000", "172511.025000", "172513.026000", "172515.026000", "172517.026000", "172519.026000", "172521.026000", "172523.026000", "172525.026000", "172527.026000", "172529.025000", "172531.026000", "172533.026000", "172535.026000", "172537.026000", "172539.026000", "172541.026000", "172543.026000", "172545.026000", "172547.026000", "172549.026000", "172551.026000", "172553.026000", "172555.026000", "172557.026000", "172559.026000", "172601.026000", "172603.026000", "172605.026000", "172607.026000", "172609.026000", "172611.026000", "172613.026000", "172615.026000", "172617.026000", "172619.026000", "172621.025000", "172623.026000", "172625.026000", "172627.026000", "172629.026000", "172631.026000", "172633.026000", "172635.026000", "172637.026000", "172639.025000", "172641.026000", "172643.026000", "172645.026000", "172647.026000", "172649.026000", "172651.026000", "172653.026000", "172655.026000", "172657.026000", "172659.026000", "172701.026000", "172703.026000", "172705.026000", "172707.026000", "172709.026000", "172711.026000", "172713.026000", "172715.026000", "172717.026000", "172719.026000", "172721.026000", "172723.026000", "172725.026000", "172727.026000", "172729.026000", "172731.025000", "172733.026000", "172735.026000", "172737.026000", "172739.026000", "172741.026000", "172743.026000", "172745.026000", "172747.026000", "172749.025000", "172751.026000", "172753.026000", "172755.026000", "172757.026000", "172759.026000", "172801.026000", "172803.026000", "172805.026000", "172807.026000", "172809.026000", "172811.026000", "172813.026000", "172815.026000", "172817.026000", "172819.026000", "172821.026000", "172823.025000", "172825.026000", "172827.026000", "172829.026000", "172831.026000", "172833.026000", "172835.026000", "172836.747000"],
      "InstanceNumber": [1, 2, 3, 4, 5, 6, 7, 8, 9, 10, 11, 12, 13, 14, 15, 16, 17, 18, 19, 20, 21, 22, 23, 24, 25, 26, 27, 28, 29, 30, 31, 32, 33, 34, 35, 36, 37, 38, 39, 40, 41, 42, 43, 44, 45, 46, 47, 48, 49, 50, 51, 52, 53, 54, 55, 56, 57, 58, 59, 60, 61, 62, 63, 64, 65, 66, 67, 68, 69, 70, 71, 72, 73, 74, 75, 76, 77, 78, 79, 80, 81, 82, 83, 84, 85, 86, 87, 88, 89, 90, 91, 92, 93, 94, 95, 96, 97, 98, 99, 100, 101, 102, 103, 104, 105, 106, 107, 108, 109, 110, 111, 112, 113, 114, 115, 116, 117, 118, 119, 120, 121, 122, 123, 124, 125, 126, 127, 128, 129, 130, 131, 132, 133, 134, 135, 136, 137, 138, 139, 140, 141, 142, 143, 144, 145, 146, 147, 148, 149, 150, 151, 152, 153, 154, 155, 156, 157, 158, 159, 160, 161, 162, 163, 164, 165, 166, 167, 168, 169, 170, 171, 172, 173, 174, 175, 176, 177, 178, 179, 180, 181, 182, 183, 184, 185, 186, 187, 188, 189, 190, 191, 192, 193, 194, 195, 196, 197, 198, 199, 200, 201, 202, 203, 204, 205, 206, 207, 208, 209, 210, 211, 212, 213, 214, 215, 216, 217, 218, 219, 220, 221, 222, 223, 224, 225, 226, 227, 228, 229, 230, 231, 232, 233, 234, 235, 236, 237, 238, 239, 240, 241, 242, 243, 244, 245, 246, 247, 248, 249, 250, 251, 252, 253, 254, 255, 256, 257, 258, 259, 260, 261, 262, 263, 264, 265, 266, 267, 268, 269, 270, 271, 272, 273, 274, 275],
      "LargestImagePixelValue": [1485, 1464, 1334, 1672, 1709, 1581, 1403, 1225, 1484, 1631, 1370, 1671, 1502, 1310, 1595, 1403, 1608, 1523, 1268, 1704, 1637, 1226, 1430, 1662, 1494, 1294, 1371, 1558, 1624, 1475, 1527, 1384, 1363, 1399, 1651, 1243, 1655, 1689, 1586, 1308, 1374, 1714, 1496, 1284, 1242, 1588, 1453, 1561, 1404, 1606, 1467, 1381, 1620, 1548, 1469, 1202, 1485, 1666, 1428, 1368, 1520, 1431, 1353, 1451, 1436, 1511, 1436, 1368, 1436, 1436, 1453, 1616, 1594, 1562, 1502, 1476, 1404, 1361, 1548, 1467, 1327, 1600, 1618, 1550, 1260, 1352, 1280, 1320, 1530, 1393, 1357, 1468, 1405, 1495, 1661, 1599, 1358, 1307, 1406, 1373, 1463, 1265, 1468, 1556, 1546, 1442, 1301, 1537, 1466, 1364, 1174, 1411, 1565, 1633, 1660, 1553, 1365, 1326, 1407, 1358, 1413, 1387, 1460, 1288, 1390, 1529, 1549, 1428, 1462, 1300, 1260, 1322, 1424, 1564, 1468, 1402, 1496, 1313, 1323, 1470, 1467, 1561, 1622, 1479, 1635, 1400, 1392, 1476, 1486, 1538, 1467, 1418, 1389, 1546, 1432, 1339, 1176, 1460, 1480, 1532, 1439, 1399, 1402, 1410, 1461, 1298, 1276, 1606, 1544, 1530, 1539, 1585, 1569, 1499, 1245, 1213, 1452, 1602, 1348, 1301, 1372, 1547, 1540, 1438, 1542, 1585, 1524, 1456, 1264, 1233, 1675, 1597, 1639, 1395, 1292, 1319, 1336, 1262, 1253, 1576, 1445, 1237, 1280, 1483, 1320, 1349, 1533, 1636, 1796, 1294, 1248, 1402, 1569, 1432, 1424, 1355, 1420, 1692, 1868, 1553, 1546, 1530, 1452, 1400, 1344, 1334, 1229, 1270, 1362, 1468, 1535, 1564, 1675, 1603, 1497, 1493, 1411, 1320, 1250, 1603, 1711, 1503, 1438, 1404, 1392, 1380, 1429, 1435, 1313, 1233, 1470, 1510, 1590, 1591, 1615, 1467, 1542, 1603, 1395, 1349, 1335, 1426, 1441, 1462, 1297, 1393, 1294, 1191, 1438, 1516, 1362, 1311, 1441, 1552, 1469],
      "WindowCenter": [594.0, 592.0, 592.0, 593.0, 592.0, 592.0, 592.0, 590.0, 592.0, 594.0, 592.0, 594.0, 593.0, 592.0, 593.0, 591.0, 593.0, 593.0, 591.0, 594.0, 593.0, 591.0, 592.0, 593.0, 594.0, 592.0, 592.0, 592.0, 594.0, 593.0, 593.0, 593.0, 592.0, 593.0, 595.0, 592.0, 594.0, 594.0, 593.0, 591.0, 592.0, 593.0, 592.0, 591.0, 592.0, 594.0, 593.0, 594.0, 593.0, 594.0, 593.0, 592.0, 593.0, 592.0, 592.0, 591.0, 593.0, 594.0, 593.0, 592.0, 592.0, 592.0, 592.0, 593.0, 592.0, 594.0, 594.0, 593.0, 593.0, 593.0, 593.0, 593.0, 593.0, 593.0, 592.0, 592.0, 593.0, 593.0, 594.0, 593.0, 592.0, 593.0, 592.0, 592.0, 591.0, 591.0, 591.0, 592.0, 593.0, 593.0, 593.0, 594.0, 592.0, 593.0, 593.0, 592.0, 591.0, 591.0, 592.0, 592.0, 593.0, 592.0, 593.0, 593.0, 593.0, 592.0, 591.0, 592.0, 591.0, 592.0, 591.0, 592.0, 593.0, 593.0, 593.0, 592.0, 591.0, 591.0, 592.0, 591.0, 592.0, 592.0, 592.0, 591.0, 592.0, 593.0, 592.0, 592.0, 591.0, 591.0, 591.0, 592.0, 592.0, 593.0, 592.0, 592.0, 592.0, 591.0, 591.0, 592.0, 591.0, 592.0, 592.0, 591.0, 593.0, 592.0, 591.0, 591.0, 591.0, 592.0, 591.0, 590.0, 591.0, 592.0, 592.0, 591.0, 589.0, 591.0, 592.0, 591.0, 591.0, 591.0, 591.0, 591.0, 592.0, 591.0, 591.0, 593.0, 593.0, 592.0, 592.0, 592.0, 591.0, 590.0, 590.0, 590.0, 591.0, 591.0, 590.0, 591.0, 591.0, 591.0, 591.0, 591.0, 592.0, 592.0, 592.0, 591.0, 591.0, 590.0, 592.0, 592.0, 592.0, 590.0, 589.0, 590.0, 590.0, 590.0, 590.0, 592.0, 591.0, 589.0, 590.0, 591.0, 590.0, 590.0, 592.0, 592.0, 592.0, 591.0, 591.0, 592.0, 592.0, 591.0, 591.0, 591.0, 591.0, 591.0, 592.0, 591.0, 592.0, 591.0, 590.0, 591.0, 591.0, 590.0, 589.0, 590.0, 590.0, 591.0, 591.0, 592.0, 592.0, 593.0, 591.0, 591.0, 591.0, 590.0, 589.0, 591.0, 592.0, 591.0, 591.0, 591.0, 591.0, 591.0, 591.0, 591.0, 590.0, 590.0, 591.0, 591.0, 591.0, 592.0, 592.0, 592.0, 592.0, 592.0, 590.0, 590.0, 590.0, 590.0, 590.0, 591.0, 591.0, 592.0, 591.0, 589.0, 591.0, 591.0, 590.0, 590.0, 591.0, 591.0, 591.0],
      "WindowWidth": [1255.0, 1251.0, 1250.0, 1252.0, 1251.0, 1251.0, 1250.0, 1247.0, 1250.0, 1254.0, 1251.0, 1254.0, 1252.0, 1251.0, 1253.0, 1249.0, 1251.0, 1252.0, 1249.0, 1255.0, 1252.0, 1248.0, 1251.0, 1253.0, 1254.0, 1250.0, 1251.0, 1251.0, 1253.0, 1254.0, 1253.0, 1252.0, 1251.0, 1253.0, 1256.0, 1252.0, 1255.0, 1255.0, 1252.0, 1249.0, 1251.0, 1253.0, 1251.0, 1248.0, 1251.0, 1255.0, 1253.0, 1255.0, 1254.0, 1254.0, 1252.0, 1250.0, 1251.0, 1251.0, 1251.0, 1249.0, 1252.0, 1254.0, 1252.0, 1251.0, 1251.0, 1249.0, 1251.0, 1252.0, 1251.0, 1254.0, 1255.0, 1253.0, 1252.0, 1252.0, 1252.0, 1253.0, 1253.0, 1253.0, 1251.0, 1251.0, 1251.0, 1253.0, 1254.0, 1254.0, 1251.0, 1252.0, 1251.0, 1250.0, 1247.0, 1249.0, 1249.0, 1250.0, 1253.0, 1253.0, 1253.0, 1254.0, 1251.0, 1252.0, 1252.0, 1251.0, 1249.0, 1249.0, 1250.0, 1250.0, 1253.0, 1251.0, 1252.0, 1251.0, 1253.0, 1251.0, 1248.0, 1250.0, 1249.0, 1250.0, 1248.0, 1251.0, 1253.0, 1253.0, 1252.0, 1250.0, 1247.0, 1247.0, 1249.0, 1247.0, 1249.0, 1250.0, 1251.0, 1248.0, 1250.0, 1251.0, 1250.0, 1250.0, 1249.0, 1248.0, 1248.0, 1250.0, 1251.0, 1251.0, 1251.0, 1250.0, 1250.0, 1247.0, 1247.0, 1249.0, 1248.0, 1250.0, 1249.0, 1249.0, 1252.0, 1250.0, 1248.0, 1248.0, 1247.0, 1249.0, 1248.0, 1247.0, 1248.0, 1251.0, 1249.0, 1247.0, 1245.0, 1249.0, 1249.0, 1249.0, 1247.0, 1248.0, 1249.0, 1249.0, 1250.0, 1248.0, 1249.0, 1251.0, 1251.0, 1251.0, 1250.0, 1250.0, 1248.0, 1246.0, 1245.0, 1246.0, 1249.0, 1248.0, 1246.0, 1247.0, 1249.0, 1248.0, 1248.0, 1247.0, 1249.0, 1250.0, 1249.0, 1249.0, 1248.0, 1247.0, 1250.0, 1249.0, 1249.0, 1246.0, 1244.0, 1246.0, 1246.0, 1246.0, 1247.0, 1249.0, 1247.0, 1245.0, 1246.0, 1247.0, 1246.0, 1247.0, 1249.0, 1250.0, 1250.0, 1248.0, 1248.0, 1249.0, 1250.0, 1247.0, 1248.0, 1248.0, 1248.0, 1248.0, 1250.0, 1249.0, 1249.0, 1248.0, 1246.0, 1247.0, 1247.0, 1246.0, 1245.0, 1246.0, 1247.0, 1247.0, 1248.0, 1249.0, 1250.0, 1251.0, 1247.0, 1248.0, 1247.0, 1246.0, 1245.0, 1248.0, 1250.0, 1248.0, 1249.0, 1248.0, 1248.0, 1248.0, 1248.0, 1247.0, 1245.0, 1245.0, 1248.0, 1247.0, 1249.0, 1249.0, 1250.0, 1250.0, 1249.0, 1249.0, 1246.0, 1246.0, 1245.0, 1246.0, 1246.0, 1248.0, 1248.0, 1249.0, 1248.0, 1245.0, 1249.0, 1248.0, 1247.0, 1245.0, 1248.0, 1248.0, 1247.0]
    },
    "slices": {}
  }
}