{
  "AcquisitionMatrixPE": 64,
  "AcquisitionNumber": 1,
  "AcquisitionTime": "15:44:6.910000",
  "BandwidthPerPixelPhaseEncode": 31.888,
  "BaseResolution": 64,
  "BodyPartExamined": "HEAD",
  "CoilCombinationMethod": "Sum of Squares",
  "ConsistencyInfo": "N4_VE11C_LATEST_20160120",
  "ConversionSoftware": "dcm2niix",
  "ConversionSoftwareVersion": "v1.0.20211006",
  "DerivedVendorReportedEchoSpacing": 0.000489996,
  "DeviceSerialNumber": "167048",
  "EchoTime": 0.03,
  "EchoTrainLength": 64,
  "EffectiveEchoSpacing": 0.000489996,
  "FlipAngle": 90,
  "ImageOrientationPatientDICOM": [0.99897, -0.0192545, 0.0410757, 0.0244143, 0.991335, -0.129067],
  "ImageType": [
    "ORIGINAL",
    "PRIMARY",
    "M",
    "ND",
    "NORM",
    "MOSAIC"
],
  "ImagingFrequency": 123.261,
  "InPlanePhaseEncodingDirectionDICOM": "COL",
  "InstitutionAddress": "Azinhaga Santa Comba StreetNo,Coimbra,District,PT,3000",
  "InstitutionName": "ICNAS",
  "MRAcquisitionType": "2D",
  "MagneticFieldStrength": 3,
  "Manufacturer": "Siemens",
  "ManufacturersModelName": "Prisma_fit",
  "MatrixCoilMode": "SENSE",
  "Modality": "MR",
  "PartialFourier": 1,
  "PatientPosition": "HFS",
  "PercentPhaseFOV": 100,
  "PercentSampling": 100,
  "PhaseEncodingDirection": "j-",
  "PhaseEncodingSteps": 64,
  "PhaseResolution": 1,
  "PixelBandwidth": 2365,
  "ProcedureStepDescription": "RM_FUNCIONAL",
  "ProtocolName": "rtfmri_neurofeedback_MTRun1",
  "PulseSequenceDetails": "%SiemensSeq%\\ep2d_bold",
  "ReceiveCoilActiveElements": "HE1-4",
  "ReceiveCoilName": "HeadNeck_20",
  "ReconMatrixPE": 64,
  "RepetitionTime": 2,
  "SAR": 0.144351,
  "ScanOptions": "FS",
  "ScanningSequence": "EP",
  "SequenceName": "*epfid2d1_64",
  "SequenceVariant": "SK",
  "SeriesDescription": "rtfmri_neurofeedback_MTRun1",
  "SeriesNumber": 4,
  "ShimSetting": [10180, 2101, 8368, 474, 67, -70, -34, 23],
  "SliceThickness": 3,
  "SliceTiming": [0, 1.02, 0.06, 1.08, 0.12, 1.14, 0.18, 1.2, 0.24, 1.26, 0.3, 1.32, 0.36, 1.38, 0.42, 1.44, 0.48, 1.5, 0.54, 1.56, 0.6, 1.62, 0.66, 1.68, 0.72, 1.74, 0.78, 1.8, 0.84, 1.86, 0.9, 1.92, 0.96],
  "SoftwareVersions": "syngo MR E11",
  "SpacingBetweenSlices": 3,
  "StationName": "MRC35377",
  "TaskName": "nf",
  "TotalReadoutTime": 0.0308698,
  "TxRefAmp": 283.685,
  "dcmmeta_affine": [
    [-3.995879888534546, 0.0976572036743164, 0.11470397561788559, 125.69864654541016],
    [0.07701800018548965, 3.9653398990631104, -0.3898106813430786, -105.69893646240234],
    [0.164302796125412, 0.5162680149078369, 2.9723520278930664, -66.3701171875],
    [0.0, 0.0, 0.0, 1.0]
],
  "dcmmeta_reorient_transform": [
    [0.0, -1.0, 0.0, 63.0],
    [1.0, 0.0, 0.0, 0.0],
    [0.0, 0.0, 1.0, 0.0],
    [0.0, 0.0, 0.0, 1.0]
],
  "dcmmeta_shape": [64, 64, 33, 275],
  "dcmmeta_slice_dim": 2,
  "dcmmeta_version": 0.6,
  "global": {
    "const": {
      "AccessionNumber": "0",
      "AcquisitionMatrix": [64, 0, 0, 64],
      "AngioFlag": "N",
      "BitsAllocated": 16,
      "BitsStored": 12,
      "BodyPartExamined": "HEAD",
      "Columns": 384,
      "EchoNumbers": 1,
      "EchoTime": 30.0,
      "EchoTrainLength": 64,
      "FlipAngle": 90.0,
      "HighBit": 11,
      "ImageOrientationPatient": [0.99897, -0.0192545, 0.0410757, 0.0244143, 0.991335, -0.129067],
      "ImagePositionPatient": [-786.817, -766.249, 22.4692],
      "ImageType": [
        "ORIGINAL",
        "PRIMARY",
        "M",
        "ND",
        "NORM",
        "MOSAIC"
],
      "ImagedNucleus": "1H",
      "ImagingFrequency": 123.261,
      "InPlanePhaseEncodingDirection": "COL",
      "MRAcquisitionType": "2D",
      "MagneticFieldStrength": 3.0,
      "Manufacturer": "SIEMENS",
      "ManufacturerModelName": "Prisma_fit",
      "Modality": "MR",
      "NumberOfAverages": 1.0,
      "NumberOfFrames": 1,
      "NumberOfPhaseEncodingSteps": 64,
      "PercentPhaseFieldOfView": 100.0,
      "PercentSampling": 100.0,
      "PerformedProcedureStepStartTime": "151118.336000",
      "PhotometricInterpretation": "MONOCHROME2",
      "PixelBandwidth": 2365.0,
      "PixelRepresentation": 0,
      "PixelSpacing": [4.0, 4.0],
      "ProtocolName": "rtfmri_neurofeedback_MTRun1",
      "RepetitionTime": 2000.0,
      "RequestAttributesSequence": [
        {
          "RequestedProcedureID": "1240",
          "ScheduledProcedureStepDescription": "RM_FUNCIONAL",
          "ScheduledProcedureStepID": "1"}
],
      "Rows": 384,
      "SAR": 0.144351,
      "SamplesPerPixel": 1,
      "ScanOptions": "FS",
      "ScanningSequence": "EP",
      "SequenceName": "*epfid2d1_64",
      "SequenceVariant": "SK",
      "SeriesDescription": "rtfmri_neurofeedback_MTRun1",
      "SeriesNumber": 4,
      "SeriesTime": "154409.424000",
      "SliceLocation": -47.2179,
      "SliceThickness": 3.0,
      "SmallestImagePixelValue": 0,
      "SoftwareVersions": "syngo MR E11",
      "SpacingBetweenSlices": 3.0,
      "SpecificCharacterSet": "ISO_IR 100",
      "StudyID": "1240",
      "StudyTime": "151116.799000",
      "TransmitCoilName": "Body",
      "VariableFlipAngleFlag": "N",
      "WindowCenterWidthExplanation": "Algo1",
      "dBdt": 0.0},
    "slices": {}
  },
  "time": {
    "samples": {
      "AcquisitionNumber": [1, 2, 3, 4, 5, 6, 7, 8, 9, 10, 11, 12, 13, 14, 15, 16, 17, 18, 19, 20, 21, 22, 23, 24, 25, 26, 27, 28, 29, 30, 31, 32, 33, 34, 35, 36, 37, 38, 39, 40, 41, 42, 43, 44, 45, 46, 47, 48, 49, 50, 51, 52, 53, 54, 55, 56, 57, 58, 59, 60, 61, 62, 63, 64, 65, 66, 67, 68, 69, 70, 71, 72, 73, 74, 75, 76, 77, 78, 79, 80, 81, 82, 83, 84, 85, 86, 87, 88, 89, 90, 91, 92, 93, 94, 95, 96, 97, 98, 99, 100, 101, 102, 103, 104, 105, 106, 107, 108, 109, 110, 111, 112, 113, 114, 115, 116, 117, 118, 119, 120, 121, 122, 123, 124, 125, 126, 127, 128, 129, 130, 131, 132, 133, 134, 135, 136, 137, 138, 139, 140, 141, 142, 143, 144, 145, 146, 147, 148, 149, 150, 151, 152, 153, 154, 155, 156, 157, 158, 159, 160, 161, 162, 163, 164, 165, 166, 167, 168, 169, 170, 171, 172, 173, 174, 175, 176, 177, 178, 179, 180, 181, 182, 183, 184, 185, 186, 187, 188, 189, 190, 191, 192, 193, 194, 195, 196, 197, 198, 199, 200, 201, 202, 203, 204, 205, 206, 207, 208, 209, 210, 211, 212, 213, 214, 215, 216, 217, 218, 219, 220, 221, 222, 223, 224, 225, 226, 227, 228, 229, 230, 231, 232, 233, 234, 235, 236, 237, 238, 239, 240, 241, 242, 243, 244, 245, 246, 247, 248, 249, 250, 251, 252, 253, 254, 255, 256, 257, 258, 259, 260, 261, 262, 263, 264, 265, 266, 267, 268, 269, 270, 271, 272, 273, 274, 275],
      "AcquisitionTime": ["154406.910000", "154408.910000", "154410.910000", "154412.910000", "154414.910000", "154416.910000", "154418.910000", "154420.910000", "154422.910000", "154424.910000", "154426.910000", "154428.910000", "154430.910000", "154432.910000", "154434.910000", "154436.910000", "154438.910000", "154440.910000", "154442.910000", "154444.910000", "154446.910000", "154448.910000", "154450.910000", "154452.910000", "154454.910000", "154456.910000", "154458.910000", "154500.910000", "154502.910000", "154504.910000", "154506.910000", "154508.910000", "154510.910000", "154512.910000", "154514.910000", "154516.910000", "154518.910000", "154520.910000", "154522.910000", "154524.910000", "154526.910000", "154528.910000", "154530.910000", "154532.910000", "154534.910000", "154536.910000", "154538.910000", "154540.910000", "154542.910000", "154544.910000", "154546.910000", "154548.910000", "154550.910000", "154552.910000", "154554.910000", "154556.910000", "154558.910000", "154600.910000", "154602.910000", "154604.910000", "154606.910000", "154608.910000", "154610.910000", "154612.910000", "154614.910000", "154616.910000", "154618.910000", "154620.910000", "154622.910000", "154624.910000", "154626.910000", "154628.910000", "154630.910000", "154632.910000", "154634.910000", "154636.910000", "154638.910000", "154640.910000", "154642.910000", "154644.910000", "154646.910000", "154648.910000", "154650.910000", "154652.910000", "154654.910000", "154656.910000", "154658.910000", "154700.910000", "154702.910000", "154704.910000", "154706.910000", "154708.910000", "154710.910000", "154712.910000", "154714.910000", "154716.910000", "154718.910000", "154720.910000", "154722.910000", "154724.910000", "154726.910000", "154728.910000", "154730.910000", "154732.910000", "154734.910000", "154736.910000", "154738.910000", "154740.910000", "154742.910000", "154744.910000", "154746.910000", "154748.910000", "154750.910000", "154752.910000", "154754.910000", "154756.910000", "154758.910000", "154800.910000", "154802.910000", "154804.910000", "154806.910000", "154808.910000", "154810.910000", "154812.910000", "154814.910000", "154816.910000", "154818.910000", "154820.910000", "154822.910000", "154824.910000", "154826.910000", "154828.910000", "154830.910000", "154832.910000", "154834.910000", "154836.910000", "154838.910000", "154840.910000", "154842.910000", "154844.910000", "154846.910000", "154848.910000", "154850.910000", "154852.910000", "154854.910000", "154856.910000", "154858.910000", "154900.910000", "154902.910000", "154904.910000", "154906.910000", "154908.910000", "154910.910000", "154912.910000", "154914.910000", "154916.910000", "154918.910000", "154920.910000", "154922.910000", "154924.910000", "154926.910000", "154928.910000", "154930.910000", "154932.910000", "154934.910000", "154936.910000", "154938.910000", "154940.910000", "154942.910000", "154944.910000", "154946.910000", "154948.910000", "154950.910000", "154952.910000", "154954.910000", "154956.910000", "154958.910000", "155000.910000", "155002.910000", "155004.910000", "155006.910000", "155008.910000", "155010.910000", "155012.910000", "155014.910000", "155016.910000", "155018.910000", "155020.910000", "155022.910000", "155024.910000", "155026.910000", "155028.910000", "155030.910000", "155032.910000", "155034.910000", "155036.910000", "155038.910000", "155040.910000", "155042.910000", "155044.910000", "155046.910000", "155048.910000", "155050.910000", "155052.910000", "155054.910000", "155056.910000", "155058.910000", "155100.910000", "155102.910000", "155104.910000", "155106.910000", "155108.910000", "155110.910000", "155112.910000", "155114.910000", "155116.910000", "155118.910000", "155120.910000", "155122.910000", "155124.910000", "155126.910000", "155128.910000", "155130.910000", "155132.910000", "155134.910000", "155136.910000", "155138.910000", "155140.910000", "155142.910000", "155144.910000", "155146.910000", "155148.910000", "155150.910000", "155152.910000", "155154.910000", "155156.910000", "155158.910000", "155200.910000", "155202.910000", "155204.910000", "155206.910000", "155208.910000", "155210.910000", "155212.910000", "155214.910000", "155216.910000", "155218.910000", "155220.910000", "155222.910000", "155224.910000", "155226.910000", "155228.910000", "155230.910000", "155232.910000", "155234.910000", "155236.910000", "155238.910000", "155240.910000", "155242.910000", "155244.910000", "155246.910000", "155248.910000", "155250.910000", "155252.910000", "155254.910000", "155256.910000", "155258.910000", "155300.910000", "155302.910000", "155304.910000", "155306.910000", "155308.910000", "155310.910000", "155312.910000", "155314.910000"],
      "ContentTime": ["154409.427000", "154411.422000", "154413.422000", "154415.422000", "154417.422000", "154419.421000", "154421.422000", "154423.422000", "154425.422000", "154427.422000", "154429.422000", "154431.422000", "154433.422000", "154435.422000", "154437.422000", "154439.422000", "154441.422000", "154443.422000", "154445.422000", "154447.422000", "154449.422000", "154451.422000", "154453.422000", "154455.422000", "154457.422000", "154459.422000", "154501.422000", "154503.422000", "154505.422000", "154507.422000", "154509.422000", "154511.421000", "154513.422000", "154515.422000", "154517.422000", "154519.422000", "154521.422000", "154523.422000", "154525.422000", "154527.422000", "154529.422000", "154531.422000", "154533.422000", "154535.422000", "154537.422000", "154539.422000", "154541.422000", "154543.422000", "154545.422000", "154547.422000", "154549.422000", "154551.422000", "154553.422000", "154555.422000", "154557.422000", "154559.422000", "154601.422000", "154603.422000", "154605.422000", "154607.422000", "154609.422000", "154611.422000", "154613.422000", "154615.422000", "154617.422000", "154619.422000", "154621.421000", "154623.422000", "154625.422000", "154627.422000", "154629.422000", "154631.422000", "154633.422000", "154635.422000", "154637.422000", "154639.422000", "154641.422000", "154643.422000", "154645.422000", "154647.422000", "154649.422000", "154651.422000", "154653.422000", "154655.422000", "154657.422000", "154659.422000", "154701.422000", "154703.422000", "154705.422000", "154707.422000", "154709.422000", "154711.422000", "154713.422000", "154715.422000", "154717.422000", "154719.422000", "154721.422000", "154723.422000", "154725.422000", "154727.422000", "154729.422000", "154731.421000", "154733.422000", "154735.422000", "154737.422000", "154739.422000", "154741.422000", "154743.422000", "154745.422000", "154747.422000", "154749.422000", "154751.422000", "154753.422000", "154755.422000", "154757.422000", "154759.422000", "154801.422000", "154803.422000", "154805.422000", "154807.422000", "154809.422000", "154811.422000", "154813.422000", "154815.422000", "154817.422000", "154819.422000", "154821.422000", "154823.422000", "154825.422000", "154827.422000", "154829.422000", "154831.422000", "154833.422000", "154835.422000", "154837.422000", "154839.422000", "154841.421000", "154843.422000", "154845.422000", "154847.422000", "154849.422000", "154851.422000", "154853.422000", "154855.422000", "154857.422000", "154859.422000", "154901.422000", "154903.422000", "154905.422000", "154907.422000", "154909.422000", "154911.422000", "154913.422000", "154915.422000", "154917.422000", "154919.422000", "154921.422000", "154923.422000", "154925.422000", "154927.422000", "154929.422000", "154931.422000", "154933.422000", "154935.422000", "154937.422000", "154939.422000", "154941.422000", "154943.422000", "154945.422000", "154947.422000", "154949.434000", "154951.421000", "154953.422000", "154955.422000", "154957.422000", "154959.422000", "155001.422000", "155003.422000", "155005.422000", "155007.422000", "155009.422000", "155011.422000", "155013.422000", "155015.422000", "155017.422000", "155019.422000", "155021.422000", "155023.422000", "155025.422000", "155027.422000", "155029.422000", "155031.422000", "155033.422000", "155035.422000", "155037.422000", "155039.422000", "155041.422000", "155043.422000", "155045.422000", "155047.422000", "155049.422000", "155051.422000", "155053.422000", "155055.422000", "155057.422000", "155059.422000", "155101.421000", "155103.422000", "155105.422000", "155107.422000", "155109.422000", "155111.422000", "155113.422000", "155115.422000", "155117.422000", "155119.422000", "155121.422000", "155123.422000", "155125.422000", "155127.422000", "155129.422000", "155131.422000", "155133.422000", "155135.422000", "155137.422000", "155139.422000", "155141.422000", "155143.422000", "155145.422000", "155147.422000", "155149.422000", "155151.422000", "155153.422000", "155155.422000", "155157.422000", "155159.422000", "155201.422000", "155203.422000", "155205.422000", "155207.422000", "155209.422000", "155211.421000", "155213.422000", "155215.422000", "155217.422000", "155219.422000", "155221.422000", "155223.422000", "155225.422000", "155227.422000", "155229.422000", "155231.422000", "155233.422000", "155235.422000", "155237.422000", "155239.422000", "155241.422000", "155243.422000", "155245.422000", "155247.422000", "155249.422000", "155251.422000", "155253.422000", "155255.422000", "155257.422000", "155259.422000", "155301.422000", "155303.421000", "155305.422000", "155307.422000", "155309.422000", "155311.422000", "155313.422000", "155315.422000", "155317.130000"],
      "InstanceCreationTime": ["154409.427000", "154411.422000", "154413.422000", "154415.422000", "154417.422000", "154419.421000", "154421.422000", "154423.422000", "154425.422000", "154427.422000", "154429.422000", "154431.422000", "154433.422000", "154435.422000", "154437.422000", "154439.422000", "154441.422000", "154443.422000", "154445.422000", "154447.422000", "154449.422000", "154451.422000", "154453.422000", "154455.422000", "154457.422000", "154459.422000", "154501.422000", "154503.422000", "154505.422000", "154507.422000", "154509.422000", "154511.421000", "154513.422000", "154515.422000", "154517.422000", "154519.422000", "154521.422000", "154523.422000", "154525.422000", "154527.422000", "154529.422000", "154531.422000", "154533.422000", "154535.422000", "154537.422000", "154539.422000", "154541.422000", "154543.422000", "154545.422000", "154547.422000", "154549.422000", "154551.422000", "154553.422000", "154555.422000", "154557.422000", "154559.422000", "154601.422000", "154603.422000", "154605.422000", "154607.422000", "154609.422000", "154611.422000", "154613.422000", "154615.422000", "154617.422000", "154619.422000", "154621.421000", "154623.422000", "154625.422000", "154627.422000", "154629.422000", "154631.422000", "154633.422000", "154635.422000", "154637.422000", "154639.422000", "154641.422000", "154643.422000", "154645.422000", "154647.422000", "154649.422000", "154651.422000", "154653.422000", "154655.422000", "154657.422000", "154659.422000", "154701.422000", "154703.422000", "154705.422000", "154707.422000", "154709.422000", "154711.422000", "154713.422000", "154715.422000", "154717.422000", "154719.422000", "154721.422000", "154723.422000", "154725.422000", "154727.422000", "154729.422000", "154731.421000", "154733.422000", "154735.422000", "154737.422000", "154739.422000", "154741.422000", "154743.422000", "154745.422000", "154747.422000", "154749.422000", "154751.422000", "154753.422000", "154755.422000", "154757.422000", "154759.422000", "154801.422000", "154803.422000", "154805.422000", "154807.422000", "154809.422000", "154811.422000", "154813.422000", "154815.422000", "154817.422000", "154819.422000", "154821.422000", "154823.422000", "154825.422000", "154827.422000", "154829.422000", "154831.422000", "154833.422000", "154835.422000", "154837.422000", "154839.422000", "154841.421000", "154843.422000", "154845.422000", "154847.422000", "154849.422000", "154851.422000", "154853.422000", "154855.422000", "154857.422000", "154859.422000", "154901.422000", "154903.422000", "154905.422000", "154907.422000", "154909.422000", "154911.422000", "154913.422000", "154915.422000", "154917.422000", "154919.422000", "154921.422000", "154923.422000", "154925.422000", "154927.422000", "154929.422000", "154931.422000", "154933.422000", "154935.422000", "154937.422000", "154939.422000", "154941.422000", "154943.422000", "154945.422000", "154947.422000", "154949.434000", "154951.421000", "154953.422000", "154955.422000", "154957.422000", "154959.422000", "155001.422000", "155003.422000", "155005.422000", "155007.422000", "155009.422000", "155011.422000", "155013.422000", "155015.422000", "155017.422000", "155019.422000", "155021.422000", "155023.422000", "155025.422000", "155027.422000", "155029.422000", "155031.422000", "155033.422000", "155035.422000", "155037.422000", "155039.422000", "155041.422000", "155043.422000", "155045.422000", "155047.422000", "155049.422000", "155051.422000", "155053.422000", "155055.422000", "155057.422000", "155059.422000", "155101.421000", "155103.422000", "155105.422000", "155107.422000", "155109.422000", "155111.422000", "155113.422000", "155115.422000", "155117.422000", "155119.422000", "155121.422000", "155123.422000", "155125.422000", "155127.422000", "155129.422000", "155131.422000", "155133.422000", "155135.422000", "155137.422000", "155139.422000", "155141.422000", "155143.422000", "155145.422000", "155147.422000", "155149.422000", "155151.422000", "155153.422000", "155155.422000", "155157.422000", "155159.422000", "155201.422000", "155203.422000", "155205.422000", "155207.422000", "155209.422000", "155211.421000", "155213.422000", "155215.422000", "155217.422000", "155219.422000", "155221.422000", "155223.422000", "155225.422000", "155227.422000", "155229.422000", "155231.422000", "155233.422000", "155235.422000", "155237.422000", "155239.422000", "155241.422000", "155243.422000", "155245.422000", "155247.422000", "155249.422000", "155251.422000", "155253.422000", "155255.422000", "155257.422000", "155259.422000", "155301.422000", "155303.421000", "155305.422000", "155307.422000", "155309.422000", "155311.422000", "155313.422000", "155315.422000", "155317.130000"],
      "InstanceNumber": [1, 2, 3, 4, 5, 6, 7, 8, 9, 10, 11, 12, 13, 14, 15, 16, 17, 18, 19, 20, 21, 22, 23, 24, 25, 26, 27, 28, 29, 30, 31, 32, 33, 34, 35, 36, 37, 38, 39, 40, 41, 42, 43, 44, 45, 46, 47, 48, 49, 50, 51, 52, 53, 54, 55, 56, 57, 58, 59, 60, 61, 62, 63, 64, 65, 66, 67, 68, 69, 70, 71, 72, 73, 74, 75, 76, 77, 78, 79, 80, 81, 82, 83, 84, 85, 86, 87, 88, 89, 90, 91, 92, 93, 94, 95, 96, 97, 98, 99, 100, 101, 102, 103, 104, 105, 106, 107, 108, 109, 110, 111, 112, 113, 114, 115, 116, 117, 118, 119, 120, 121, 122, 123, 124, 125, 126, 127, 128, 129, 130, 131, 132, 133, 134, 135, 136, 137, 138, 139, 140, 141, 142, 143, 144, 145, 146, 147, 148, 149, 150, 151, 152, 153, 154, 155, 156, 157, 158, 159, 160, 161, 162, 163, 164, 165, 166, 167, 168, 169, 170, 171, 172, 173, 174, 175, 176, 177, 178, 179, 180, 181, 182, 183, 184, 185, 186, 187, 188, 189, 190, 191, 192, 193, 194, 195, 196, 197, 198, 199, 200, 201, 202, 203, 204, 205, 206, 207, 208, 209, 210, 211, 212, 213, 214, 215, 216, 217, 218, 219, 220, 221, 222, 223, 224, 225, 226, 227, 228, 229, 230, 231, 232, 233, 234, 235, 236, 237, 238, 239, 240, 241, 242, 243, 244, 245, 246, 247, 248, 249, 250, 251, 252, 253, 254, 255, 256, 257, 258, 259, 260, 261, 262, 263, 264, 265, 266, 267, 268, 269, 270, 271, 272, 273, 274, 275],
      "LargestImagePixelValue": [1620, 1867, 1386, 1513, 1428, 1484, 1579, 1377, 1395, 1369, 1574, 1367, 1474, 1372, 1389, 1369, 1433, 1400, 1379, 1380, 1382, 1507, 1637, 1691, 1379, 1353, 1684, 1567, 1693, 1354, 1412, 1386, 1408, 1594, 1404, 1504, 1373, 1426, 1474, 1459, 1473, 1358, 1459, 1382, 1374, 1402, 1534, 1363, 1534, 1380, 1540, 1352, 1435, 1355, 1711, 1373, 1371, 1374, 1403, 1643, 1514, 1508, 1352, 1360, 1382, 1425, 1537, 1386, 1354, 1413, 1425, 1718, 1375, 1361, 1394, 1658, 1375, 1385, 1368, 1405, 1394, 1382, 1392, 1498, 1512, 1451, 1380, 1372, 1431, 1379, 1780, 1436, 1431, 1345, 1510, 1493, 1459, 1392, 1391, 1678, 1521, 1416, 1382, 1696, 1364, 1413, 1698, 1396, 1485, 1496, 1472, 1357, 1370, 1396, 1519, 1345, 1447, 1370, 1560, 1360, 1525, 1343, 1377, 1375, 1410, 1794, 1675, 1865, 1333, 1380, 1430, 1739, 1623, 1380, 1396, 1587, 1466, 1396, 1518, 1356, 1400, 1376, 1642, 1338, 1469, 1369, 1412, 1516, 1563, 1415, 1488, 1346, 1385, 1382, 1898, 1498, 1411, 1343, 1441, 1426, 1426, 1493, 1815, 1598, 1830, 1392, 1410, 1358, 1441, 1371, 1613, 1398, 1789, 1411, 1368, 1457, 1794, 1639, 1435, 1354, 1378, 1431, 1795, 1344, 1408, 1392, 1379, 1500, 1437, 1549, 1363, 1521, 1377, 1872, 1369, 1415, 1433, 1435, 1350, 1369, 1403, 1382, 1731, 1387, 1515, 1368, 1570, 1376, 1351, 1500, 1423, 1390, 1347, 1548, 1441, 1737, 1372, 1363, 1525, 1589, 1766, 1375, 1389, 1361, 1566, 1509, 1392, 1378, 1403, 1441, 1484, 1561, 1451, 1404, 1372, 1431, 1608, 1356, 1444, 1356, 1483, 1564, 1539, 1576, 1461, 1424, 1365, 1416, 1509, 1352, 1418, 1382, 1447, 1499, 1370, 1491, 1369, 1537, 1432, 1436, 1391, 1615, 1379, 1534, 1401, 1416, 1439, 1408, 1562, 1424, 1417, 1385, 1447, 1491, 1819],
      "WindowCenter": [654.0, 652.0, 651.0, 653.0, 653.0, 653.0, 653.0, 652.0, 653.0, 653.0, 654.0, 652.0, 652.0, 652.0, 653.0, 653.0, 653.0, 653.0, 653.0, 653.0, 654.0, 655.0, 655.0, 655.0, 654.0, 656.0, 656.0, 654.0, 654.0, 653.0, 654.0, 654.0, 653.0, 654.0, 652.0, 653.0, 653.0, 653.0, 653.0, 652.0, 653.0, 652.0, 653.0, 652.0, 652.0, 652.0, 653.0, 653.0, 653.0, 651.0, 652.0, 652.0, 653.0, 652.0, 653.0, 651.0, 652.0, 652.0, 653.0, 653.0, 652.0, 652.0, 652.0, 652.0, 653.0, 653.0, 653.0, 652.0, 654.0, 654.0, 652.0, 652.0, 652.0, 653.0, 653.0, 653.0, 652.0, 652.0, 652.0, 653.0, 652.0, 652.0, 652.0, 652.0, 652.0, 652.0, 652.0, 653.0, 653.0, 653.0, 654.0, 652.0, 652.0, 652.0, 653.0, 653.0, 652.0, 653.0, 652.0, 653.0, 651.0, 651.0, 652.0, 654.0, 652.0, 652.0, 652.0, 651.0, 651.0, 651.0, 651.0, 650.0, 652.0, 653.0, 653.0, 652.0, 652.0, 653.0, 653.0, 651.0, 651.0, 650.0, 651.0, 653.0, 654.0, 654.0, 652.0, 652.0, 651.0, 653.0, 653.0, 652.0, 651.0, 651.0, 653.0, 653.0, 652.0, 651.0, 652.0, 651.0, 651.0, 652.0, 652.0, 651.0, 652.0, 653.0, 653.0, 653.0, 652.0, 651.0, 651.0, 652.0, 654.0, 653.0, 654.0, 652.0, 651.0, 652.0, 652.0, 652.0, 652.0, 653.0, 654.0, 652.0, 652.0, 650.0, 651.0, 652.0, 652.0, 652.0, 652.0, 651.0, 652.0, 651.0, 652.0, 653.0, 653.0, 652.0, 651.0, 651.0, 653.0, 653.0, 654.0, 652.0, 652.0, 652.0, 651.0, 652.0, 652.0, 652.0, 653.0, 653.0, 652.0, 653.0, 652.0, 652.0, 652.0, 651.0, 651.0, 652.0, 653.0, 653.0, 653.0, 652.0, 652.0, 652.0, 652.0, 652.0, 651.0, 652.0, 652.0, 652.0, 652.0, 653.0, 652.0, 653.0, 652.0, 653.0, 654.0, 653.0, 654.0, 653.0, 653.0, 653.0, 652.0, 652.0, 652.0, 653.0, 652.0, 652.0, 652.0, 652.0, 651.0, 652.0, 653.0, 653.0, 652.0, 651.0, 651.0, 652.0, 654.0, 653.0, 651.0, 651.0, 651.0, 652.0, 652.0, 652.0, 651.0, 651.0, 651.0, 651.0, 652.0, 653.0, 652.0, 652.0, 652.0, 653.0, 654.0, 653.0, 653.0, 653.0, 652.0, 653.0, 653.0, 653.0, 653.0, 652.0, 652.0, 651.0, 651.0, 653.0, 654.0, 653.0, 653.0],
      "WindowWidth": [1393.0, 1389.0, 1387.0, 1391.0, 1391.0, 1391.0, 1390.0, 1388.0, 1390.0, 1391.0, 1392.0, 1389.0, 1389.0, 1389.0, 1391.0, 1392.0, 1391.0, 1391.0, 1391.0, 1392.0, 1393.0, 1395.0, 1396.0, 1395.0, 1393.0, 1397.0, 1398.0, 1394.0, 1392.0, 1390.0, 1392.0, 1393.0, 1392.0, 1392.0, 1389.0, 1390.0, 1391.0, 1390.0, 1390.0, 1389.0, 1390.0, 1390.0, 1391.0, 1389.0, 1388.0, 1387.0, 1390.0, 1390.0, 1390.0, 1385.0, 1389.0, 1389.0, 1389.0, 1388.0, 1389.0, 1387.0, 1388.0, 1389.0, 1390.0, 1391.0, 1388.0, 1387.0, 1387.0, 1388.0, 1391.0, 1391.0, 1391.0, 1389.0, 1392.0, 1393.0, 1388.0, 1389.0, 1388.0, 1391.0, 1390.0, 1390.0, 1387.0, 1387.0, 1389.0, 1389.0, 1388.0, 1387.0, 1387.0, 1388.0, 1388.0, 1387.0, 1389.0, 1390.0, 1390.0, 1390.0, 1392.0, 1389.0, 1388.0, 1388.0, 1390.0, 1390.0, 1389.0, 1389.0, 1389.0, 1391.0, 1386.0, 1386.0, 1388.0, 1392.0, 1389.0, 1387.0, 1388.0, 1385.0, 1386.0, 1385.0, 1385.0, 1384.0, 1388.0, 1391.0, 1389.0, 1388.0, 1388.0, 1390.0, 1389.0, 1386.0, 1385.0, 1384.0, 1385.0, 1390.0, 1393.0, 1393.0, 1389.0, 1388.0, 1387.0, 1389.0, 1389.0, 1388.0, 1386.0, 1386.0, 1391.0, 1391.0, 1388.0, 1386.0, 1388.0, 1387.0, 1386.0, 1387.0, 1388.0, 1387.0, 1388.0, 1390.0, 1391.0, 1391.0, 1389.0, 1386.0, 1386.0, 1389.0, 1392.0, 1390.0, 1391.0, 1387.0, 1386.0, 1387.0, 1388.0, 1388.0, 1387.0, 1391.0, 1392.0, 1388.0, 1388.0, 1384.0, 1386.0, 1388.0, 1388.0, 1387.0, 1387.0, 1385.0, 1388.0, 1386.0, 1387.0, 1389.0, 1390.0, 1387.0, 1385.0, 1386.0, 1390.0, 1391.0, 1391.0, 1388.0, 1388.0, 1387.0, 1386.0, 1389.0, 1388.0, 1389.0, 1390.0, 1389.0, 1387.0, 1391.0, 1389.0, 1389.0, 1388.0, 1385.0, 1386.0, 1389.0, 1391.0, 1390.0, 1391.0, 1387.0, 1388.0, 1388.0, 1389.0, 1387.0, 1386.0, 1388.0, 1388.0, 1388.0, 1388.0, 1389.0, 1388.0, 1389.0, 1387.0, 1390.0, 1392.0, 1391.0, 1391.0, 1391.0, 1390.0, 1389.0, 1387.0, 1387.0, 1388.0, 1389.0, 1388.0, 1389.0, 1387.0, 1388.0, 1386.0, 1388.0, 1389.0, 1389.0, 1389.0, 1386.0, 1385.0, 1389.0, 1392.0, 1390.0, 1386.0, 1385.0, 1385.0, 1387.0, 1387.0, 1387.0, 1386.0, 1386.0, 1386.0, 1386.0, 1387.0, 1389.0, 1387.0, 1388.0, 1388.0, 1391.0, 1392.0, 1391.0, 1390.0, 1390.0, 1387.0, 1389.0, 1390.0, 1390.0, 1390.0, 1388.0, 1388.0, 1385.0, 1386.0, 1390.0, 1393.0, 1391.0, 1390.0]
    },
    "slices": {}
  }
}