{
  "AcquisitionMatrixPE": 64,
  "AcquisitionNumber": 1,
  "AcquisitionTime": "15:58:3.925000",
  "BandwidthPerPixelPhaseEncode": 31.888,
  "BaseResolution": 64,
  "BodyPartExamined": "HEAD",
  "CoilCombinationMethod": "Sum of Squares",
  "ConsistencyInfo": "N4_VE11C_LATEST_20160120",
  "ConversionSoftware": "dcm2niix",
  "ConversionSoftwareVersion": "v1.0.20211006",
  "DerivedVendorReportedEchoSpacing": 0.000489996,
  "DeviceSerialNumber": "167048",
  "EchoTime": 0.03,
  "EchoTrainLength": 64,
  "EffectiveEchoSpacing": 0.000489996,
  "FlipAngle": 90,
  "ImageOrientationPatientDICOM": [0.99897, -0.0192545, 0.0410757, 0.0244143, 0.991335, -0.129067],
  "ImageType": [
    "ORIGINAL",
    "PRIMARY",
    "M",
    "ND",
    "NORM",
    "MOSAIC"
],
  "ImagingFrequency": 123.261,
  "InPlanePhaseEncodingDirectionDICOM": "COL",
  "InstitutionAddress": "Azinhaga Santa Comba StreetNo,Coimbra,District,PT,3000",
  "InstitutionName": "ICNAS",
  "MRAcquisitionType": "2D",
  "MagneticFieldStrength": 3,
  "Manufacturer": "Siemens",
  "ManufacturersModelName": "Prisma_fit",
  "MatrixCoilMode": "SENSE",
  "Modality": "MR",
  "PartialFourier": 1,
  "PatientPosition": "HFS",
  "PercentPhaseFOV": 100,
  "PercentSampling": 100,
  "PhaseEncodingDirection": "j-",
  "PhaseEncodingSteps": 64,
  "PhaseResolution": 1,
  "PixelBandwidth": 2365,
  "ProcedureStepDescription": "RM_FUNCIONAL",
  "ProtocolName": "rtfmri_neurofeedback_MTRun2",
  "PulseSequenceDetails": "%SiemensSeq%\\ep2d_bold",
  "ReceiveCoilActiveElements": "HE1-4",
  "ReceiveCoilName": "HeadNeck_20",
  "ReconMatrixPE": 64,
  "RepetitionTime": 2,
  "SAR": 0.144351,
  "ScanOptions": "FS",
  "ScanningSequence": "EP",
  "SequenceName": "*epfid2d1_64",
  "SequenceVariant": "SK",
  "SeriesDescription": "rtfmri_neurofeedback_MTRun2",
  "SeriesNumber": 5,
  "ShimSetting": [10180, 2101, 8368, 474, 67, -70, -34, 23],
  "SliceThickness": 3,
  "SliceTiming": [0, 1.02, 0.06, 1.08, 0.12, 1.14, 0.18, 1.2, 0.24, 1.26, 0.3, 1.32, 0.36, 1.38, 0.42, 1.44, 0.48, 1.5, 0.54, 1.56, 0.6, 1.62, 0.66, 1.68, 0.72, 1.74, 0.78, 1.8, 0.84, 1.86, 0.9, 1.92, 0.96],
  "SoftwareVersions": "syngo MR E11",
  "SpacingBetweenSlices": 3,
  "StationName": "MRC35377",
  "TaskName": "nf",
  "TotalReadoutTime": 0.0308698,
  "TxRefAmp": 283.685,
  "dcmmeta_affine": [
    [-3.995879888534546, 0.0976572036743164, 0.11470397561788559, 125.69864654541016],
    [0.07701800018548965, 3.9653398990631104, -0.3898106813430786, -105.69893646240234],
    [0.164302796125412, 0.5162680149078369, 2.9723520278930664, -66.3701171875],
    [0.0, 0.0, 0.0, 1.0]
],
  "dcmmeta_reorient_transform": [
    [0.0, -1.0, 0.0, 63.0],
    [1.0, 0.0, 0.0, 0.0],
    [0.0, 0.0, 1.0, 0.0],
    [0.0, 0.0, 0.0, 1.0]
],
  "dcmmeta_shape": [64, 64, 33, 275],
  "dcmmeta_slice_dim": 2,
  "dcmmeta_version": 0.6,
  "global": {
    "const": {
      "AccessionNumber": "0",
      "AcquisitionMatrix": [64, 0, 0, 64],
      "AngioFlag": "N",
      "BitsAllocated": 16,
      "BitsStored": 12,
      "BodyPartExamined": "HEAD",
      "Columns": 384,
      "EchoNumbers": 1,
      "EchoTime": 30.0,
      "EchoTrainLength": 64,
      "FlipAngle": 90.0,
      "HighBit": 11,
      "ImageOrientationPatient": [0.99897, -0.0192545, 0.0410757, 0.0244143, 0.991335, -0.129067],
      "ImagePositionPatient": [-786.817, -766.249, 22.4692],
      "ImageType": [
        "ORIGINAL",
        "PRIMARY",
        "M",
        "ND",
        "NORM",
        "MOSAIC"
],
      "ImagedNucleus": "1H",
      "ImagingFrequency": 123.261,
      "InPlanePhaseEncodingDirection": "COL",
      "MRAcquisitionType": "2D",
      "MagneticFieldStrength": 3.0,
      "Manufacturer": "SIEMENS",
      "ManufacturerModelName": "Prisma_fit",
      "Modality": "MR",
      "NumberOfAverages": 1.0,
      "NumberOfFrames": 1,
      "NumberOfPhaseEncodingSteps": 64,
      "PercentPhaseFieldOfView": 100.0,
      "PercentSampling": 100.0,
      "PerformedProcedureStepStartTime": "151118.336000",
      "PhotometricInterpretation": "MONOCHROME2",
      "PixelBandwidth": 2365.0,
      "PixelRepresentation": 0,
      "PixelSpacing": [4.0, 4.0],
      "ProtocolName": "rtfmri_neurofeedback_MTRun2",
      "RepetitionTime": 2000.0,
      "RequestAttributesSequence": [
        {
          "RequestedProcedureID": "1240",
          "ScheduledProcedureStepDescription": "RM_FUNCIONAL",
          "ScheduledProcedureStepID": "1"}
],
      "Rows": 384,
      "SAR": 0.144351,
      "SamplesPerPixel": 1,
      "ScanOptions": "FS",
      "ScanningSequence": "EP",
      "SequenceName": "*epfid2d1_64",
      "SequenceVariant": "SK",
      "SeriesDescription": "rtfmri_neurofeedback_MTRun2",
      "SeriesNumber": 5,
      "SeriesTime": "155806.549000",
      "SliceLocation": -47.2179,
      "SliceThickness": 3.0,
      "SmallestImagePixelValue": 0,
      "SoftwareVersions": "syngo MR E11",
      "SpacingBetweenSlices": 3.0,
      "SpecificCharacterSet": "ISO_IR 100",
      "StudyID": "1240",
      "StudyTime": "151116.799000",
      "TransmitCoilName": "Body",
      "VariableFlipAngleFlag": "N",
      "WindowCenterWidthExplanation": "Algo1",
      "dBdt": 0.0},
    "slices": {}
  },
  "time": {
    "samples": {
      "AcquisitionNumber": [1, 2, 3, 4, 5, 6, 7, 8, 9, 10, 11, 12, 13, 14, 15, 16, 17, 18, 19, 20, 21, 22, 23, 24, 25, 26, 27, 28, 29, 30, 31, 32, 33, 34, 35, 36, 37, 38, 39, 40, 41, 42, 43, 44, 45, 46, 47, 48, 49, 50, 51, 52, 53, 54, 55, 56, 57, 58, 59, 60, 61, 62, 63, 64, 65, 66, 67, 68, 69, 70, 71, 72, 73, 74, 75, 76, 77, 78, 79, 80, 81, 82, 83, 84, 85, 86, 87, 88, 89, 90, 91, 92, 93, 94, 95, 96, 97, 98, 99, 100, 101, 102, 103, 104, 105, 106, 107, 108, 109, 110, 111, 112, 113, 114, 115, 116, 117, 118, 119, 120, 121, 122, 123, 124, 125, 126, 127, 128, 129, 130, 131, 132, 133, 134, 135, 136, 137, 138, 139, 140, 141, 142, 143, 144, 145, 146, 147, 148, 149, 150, 151, 152, 153, 154, 155, 156, 157, 158, 159, 160, 161, 162, 163, 164, 165, 166, 167, 168, 169, 170, 171, 172, 173, 174, 175, 176, 177, 178, 179, 180, 181, 182, 183, 184, 185, 186, 187, 188, 189, 190, 191, 192, 193, 194, 195, 196, 197, 198, 199, 200, 201, 202, 203, 204, 205, 206, 207, 208, 209, 210, 211, 212, 213, 214, 215, 216, 217, 218, 219, 220, 221, 222, 223, 224, 225, 226, 227, 228, 229, 230, 231, 232, 233, 234, 235, 236, 237, 238, 239, 240, 241, 242, 243, 244, 245, 246, 247, 248, 249, 250, 251, 252, 253, 254, 255, 256, 257, 258, 259, 260, 261, 262, 263, 264, 265, 266, 267, 268, 269, 270, 271, 272, 273, 274, 275],
      "AcquisitionTime": ["155803.925000", "155805.925000", "155807.925000", "155809.925000", "155811.925000", "155813.925000", "155815.925000", "155817.925000", "155819.925000", "155821.925000", "155823.925000", "155825.925000", "155827.925000", "155829.925000", "155831.925000", "155833.925000", "155835.925000", "155837.925000", "155839.925000", "155841.925000", "155843.925000", "155845.925000", "155847.925000", "155849.925000", "155851.925000", "155853.925000", "155855.925000", "155857.925000", "155859.925000", "155901.925000", "155903.925000", "155905.925000", "155907.925000", "155909.925000", "155911.925000", "155913.925000", "155915.925000", "155917.925000", "155919.925000", "155921.925000", "155923.925000", "155925.925000", "155927.925000", "155929.925000", "155931.925000", "155933.925000", "155935.925000", "155937.925000", "155939.925000", "155941.925000", "155943.925000", "155945.925000", "155947.925000", "155949.925000", "155951.925000", "155953.925000", "155955.925000", "155957.925000", "155959.925000", "160001.925000", "160003.925000", "160005.925000", "160007.925000", "160009.925000", "160011.925000", "160013.925000", "160015.925000", "160017.925000", "160019.925000", "160021.925000", "160023.925000", "160025.925000", "160027.925000", "160029.925000", "160031.925000", "160033.925000", "160035.925000", "160037.925000", "160039.925000", "160041.925000", "160043.925000", "160045.925000", "160047.925000", "160049.925000", "160051.925000", "160053.925000", "160055.925000", "160057.925000", "160059.925000", "160101.925000", "160103.925000", "160105.925000", "160107.925000", "160109.925000", "160111.925000", "160113.925000", "160115.925000", "160117.925000", "160119.925000", "160121.925000", "160123.925000", "160125.925000", "160127.925000", "160129.925000", "160131.925000", "160133.925000", "160135.925000", "160137.925000", "160139.925000", "160141.925000", "160143.925000", "160145.925000", "160147.925000", "160149.925000", "160151.925000", "160153.925000", "160155.925000", "160157.925000", "160159.925000", "160201.925000", "160203.925000", "160205.925000", "160207.925000", "160209.925000", "160211.925000", "160213.925000", "160215.925000", "160217.925000", "160219.925000", "160221.925000", "160223.925000", "160225.925000", "160227.925000", "160229.925000", "160231.925000", "160233.925000", "160235.925000", "160237.925000", "160239.925000", "160241.925000", "160243.925000", "160245.925000", "160247.925000", "160249.925000", "160251.925000", "160253.925000", "160255.925000", "160257.925000", "160259.925000", "160301.925000", "160303.925000", "160305.925000", "160307.925000", "160309.925000", "160311.925000", "160313.925000", "160315.925000", "160317.925000", "160319.925000", "160321.925000", "160323.925000", "160325.925000", "160327.925000", "160329.925000", "160331.925000", "160333.925000", "160335.925000", "160337.925000", "160339.925000", "160341.925000", "160343.925000", "160345.925000", "160347.925000", "160349.925000", "160351.925000", "160353.925000", "160355.925000", "160357.925000", "160359.925000", "160401.925000", "160403.925000", "160405.925000", "160407.925000", "160409.925000", "160411.925000", "160413.925000", "160415.925000", "160417.925000", "160419.925000", "160421.925000", "160423.925000", "160425.925000", "160427.925000", "160429.925000", "160431.925000", "160433.925000", "160435.925000", "160437.925000", "160439.925000", "160441.925000", "160443.925000", "160445.925000", "160447.925000", "160449.925000", "160451.925000", "160453.925000", "160455.925000", "160457.925000", "160459.925000", "160501.925000", "160503.925000", "160505.925000", "160507.925000", "160509.925000", "160511.925000", "160513.925000", "160515.925000", "160517.925000", "160519.925000", "160521.925000", "160523.925000", "160525.925000", "160527.925000", "160529.925000", "160531.925000", "160533.925000", "160535.925000", "160537.925000", "160539.925000", "160541.925000", "160543.925000", "160545.925000", "160547.925000", "160549.925000", "160551.925000", "160553.925000", "160555.925000", "160557.925000", "160559.925000", "160601.925000", "160603.925000", "160605.925000", "160607.925000", "160609.925000", "160611.925000", "160613.925000", "160615.925000", "160617.925000", "160619.925000", "160621.925000", "160623.925000", "160625.925000", "160627.925000", "160629.925000", "160631.925000", "160633.925000", "160635.925000", "160637.925000", "160639.925000", "160641.925000", "160643.925000", "160645.925000", "160647.925000", "160649.925000", "160651.925000", "160653.925000", "160655.925000", "160657.925000", "160659.925000", "160701.925000", "160703.925000", "160705.925000", "160707.925000", "160709.925000", "160711.925000"],
      "ContentTime": ["155806.553000", "155808.548000", "155810.548000", "155812.548000", "155814.548000", "155816.547000", "155818.547000", "155820.548000", "155822.548000", "155824.548000", "155826.548000", "155828.548000", "155830.548000", "155832.548000", "155834.547000", "155836.548000", "155838.548000", "155840.548000", "155842.548000", "155844.548000", "155846.548000", "155848.548000", "155850.548000", "155852.547000", "155854.548000", "155856.548000", "155858.548000", "155900.548000", "155902.548000", "155904.548000", "155906.548000", "155908.547000", "155910.547000", "155912.548000", "155914.548000", "155916.548000", "155918.548000", "155920.548000", "155922.548000", "155924.548000", "155926.547000", "155928.547000", "155930.548000", "155932.548000", "155934.548000", "155936.548000", "155938.548000", "155940.548000", "155942.548000", "155944.547000", "155946.548000", "155948.548000", "155950.548000", "155952.548000", "155954.548000", "155956.548000", "155958.548000", "160000.548000", "160002.547000", "160004.548000", "160006.548000", "160008.548000", "160010.548000", "160012.548000", "160014.548000", "160016.548000", "160018.547000", "160020.547000", "160022.548000", "160024.548000", "160026.548000", "160028.548000", "160030.548000", "160032.548000", "160034.548000", "160036.562000", "160038.548000", "160040.548000", "160042.548000", "160044.548000", "160046.548000", "160048.548000", "160050.548000", "160052.548000", "160054.547000", "160056.548000", "160058.548000", "160100.548000", "160102.548000", "160104.548000", "160106.548000", "160108.548000", "160110.548000", "160112.547000", "160114.548000", "160116.548000", "160118.548000", "160120.548000", "160122.548000", "160124.548000", "160126.548000", "160128.547000", "160130.547000", "160132.548000", "160134.548000", "160136.548000", "160138.548000", "160140.548000", "160142.548000", "160144.548000", "160146.547000", "160148.548000", "160150.548000", "160152.548000", "160154.548000", "160156.548000", "160158.548000", "160200.548000", "160202.548000", "160204.547000", "160206.548000", "160208.548000", "160210.548000", "160212.548000", "160214.548000", "160216.548000", "160218.548000", "160220.548000", "160222.547000", "160224.548000", "160226.548000", "160228.548000", "160230.548000", "160232.548000", "160234.548000", "160236.548000", "160238.547000", "160240.547000", "160242.549000", "160244.548000", "160246.548000", "160248.548000", "160250.548000", "160252.548000", "160254.548000", "160256.547000", "160258.548000", "160300.548000", "160302.548000", "160304.548000", "160306.548000", "160308.548000", "160310.548000", "160312.548000", "160314.547000", "160316.548000", "160318.548000", "160320.548000", "160322.548000", "160324.548000", "160326.548000", "160328.548000", "160330.548000", "160332.547000", "160334.548000", "160336.548000", "160338.548000", "160340.548000", "160342.548000", "160344.548000", "160346.548000", "160348.548000", "160350.547000", "160352.548000", "160354.548000", "160356.548000", "160358.549000", "160400.548000", "160402.548000", "160404.548000", "160406.547000", "160408.548000", "160410.548000", "160412.548000", "160414.548000", "160416.548000", "160418.548000", "160420.548000", "160422.548000", "160424.547000", "160426.548000", "160428.548000", "160430.548000", "160432.548000", "160434.548000", "160436.548000", "160438.548000", "160440.548000", "160442.547000", "160444.548000", "160446.548000", "160448.548000", "160450.548000", "160452.548000", "160454.548000", "160456.548000", "160458.547000", "160500.547000", "160502.548000", "160504.548000", "160506.548000", "160508.548000", "160510.548000", "160512.548000", "160514.548000", "160516.547000", "160518.548000", "160520.548000", "160522.548000", "160524.548000", "160526.548000", "160528.548000", "160530.548000", "160532.548000", "160534.547000", "160536.548000", "160538.548000", "160540.548000", "160542.548000", "160544.548000", "160546.548000", "160548.548000", "160550.548000", "160552.547000", "160554.548000", "160556.548000", "160558.548000", "160600.548000", "160602.548000", "160604.548000", "160606.548000", "160608.547000", "160610.547000", "160612.548000", "160614.548000", "160616.548000", "160618.548000", "160620.548000", "160622.548000", "160624.548000", "160626.547000", "160628.548000", "160630.548000", "160632.548000", "160634.548000", "160636.548000", "160638.548000", "160640.548000", "160642.548000", "160644.547000", "160646.548000", "160648.548000", "160650.548000", "160652.548000", "160654.548000", "160656.548000", "160658.548000", "160700.547000", "160702.547000", "160704.548000", "160706.548000", "160708.548000", "160710.548000", "160712.548000", "160714.270000"],
      "InstanceCreationTime": ["155806.553000", "155808.548000", "155810.548000", "155812.548000", "155814.548000", "155816.547000", "155818.547000", "155820.548000", "155822.548000", "155824.548000", "155826.548000", "155828.548000", "155830.548000", "155832.548000", "155834.547000", "155836.548000", "155838.548000", "155840.548000", "155842.548000", "155844.548000", "155846.548000", "155848.548000", "155850.548000", "155852.547000", "155854.548000", "155856.548000", "155858.548000", "155900.548000", "155902.548000", "155904.548000", "155906.548000", "155908.547000", "155910.547000", "155912.548000", "155914.548000", "155916.548000", "155918.548000", "155920.548000", "155922.548000", "155924.548000", "155926.547000", "155928.547000", "155930.548000", "155932.548000", "155934.548000", "155936.548000", "155938.548000", "155940.548000", "155942.548000", "155944.547000", "155946.548000", "155948.548000", "155950.548000", "155952.548000", "155954.548000", "155956.548000", "155958.548000", "160000.548000", "160002.547000", "160004.548000", "160006.548000", "160008.548000", "160010.548000", "160012.548000", "160014.548000", "160016.548000", "160018.547000", "160020.547000", "160022.548000", "160024.548000", "160026.548000", "160028.548000", "160030.548000", "160032.548000", "160034.548000", "160036.562000", "160038.548000", "160040.548000", "160042.548000", "160044.548000", "160046.548000", "160048.548000", "160050.548000", "160052.548000", "160054.547000", "160056.548000", "160058.548000", "160100.548000", "160102.548000", "160104.548000", "160106.548000", "160108.548000", "160110.548000", "160112.547000", "160114.548000", "160116.548000", "160118.548000", "160120.548000", "160122.548000", "160124.548000", "160126.548000", "160128.547000", "160130.547000", "160132.548000", "160134.548000", "160136.548000", "160138.548000", "160140.548000", "160142.548000", "160144.548000", "160146.547000", "160148.548000", "160150.548000", "160152.548000", "160154.548000", "160156.548000", "160158.548000", "160200.548000", "160202.548000", "160204.547000", "160206.548000", "160208.548000", "160210.548000", "160212.548000", "160214.548000", "160216.548000", "160218.548000", "160220.548000", "160222.547000", "160224.548000", "160226.548000", "160228.548000", "160230.548000", "160232.548000", "160234.548000", "160236.548000", "160238.547000", "160240.547000", "160242.549000", "160244.548000", "160246.548000", "160248.548000", "160250.548000", "160252.548000", "160254.548000", "160256.547000", "160258.548000", "160300.548000", "160302.548000", "160304.548000", "160306.548000", "160308.548000", "160310.548000", "160312.548000", "160314.547000", "160316.548000", "160318.548000", "160320.548000", "160322.548000", "160324.548000", "160326.548000", "160328.548000", "160330.548000", "160332.547000", "160334.548000", "160336.548000", "160338.548000", "160340.548000", "160342.548000", "160344.548000", "160346.548000", "160348.548000", "160350.547000", "160352.548000", "160354.548000", "160356.548000", "160358.549000", "160400.548000", "160402.548000", "160404.548000", "160406.547000", "160408.548000", "160410.548000", "160412.548000", "160414.548000", "160416.548000", "160418.548000", "160420.548000", "160422.548000", "160424.547000", "160426.548000", "160428.548000", "160430.548000", "160432.548000", "160434.548000", "160436.548000", "160438.548000", "160440.548000", "160442.547000", "160444.548000", "160446.548000", "160448.548000", "160450.548000", "160452.548000", "160454.548000", "160456.548000", "160458.547000", "160500.547000", "160502.548000", "160504.548000", "160506.548000", "160508.548000", "160510.548000", "160512.548000", "160514.548000", "160516.547000", "160518.548000", "160520.548000", "160522.548000", "160524.548000", "160526.548000", "160528.548000", "160530.548000", "160532.548000", "160534.547000", "160536.548000", "160538.548000", "160540.548000", "160542.548000", "160544.548000", "160546.548000", "160548.548000", "160550.548000", "160552.547000", "160554.548000", "160556.548000", "160558.548000", "160600.548000", "160602.548000", "160604.548000", "160606.548000", "160608.547000", "160610.547000", "160612.548000", "160614.548000", "160616.548000", "160618.548000", "160620.548000", "160622.548000", "160624.548000", "160626.547000", "160628.548000", "160630.548000", "160632.548000", "160634.548000", "160636.548000", "160638.548000", "160640.548000", "160642.548000", "160644.547000", "160646.548000", "160648.548000", "160650.548000", "160652.548000", "160654.548000", "160656.548000", "160658.548000", "160700.547000", "160702.547000", "160704.548000", "160706.548000", "160708.548000", "160710.548000", "160712.548000", "160714.270000"],
      "InstanceNumber": [1, 2, 3, 4, 5, 6, 7, 8, 9, 10, 11, 12, 13, 14, 15, 16, 17, 18, 19, 20, 21, 22, 23, 24, 25, 26, 27, 28, 29, 30, 31, 32, 33, 34, 35, 36, 37, 38, 39, 40, 41, 42, 43, 44, 45, 46, 47, 48, 49, 50, 51, 52, 53, 54, 55, 56, 57, 58, 59, 60, 61, 62, 63, 64, 65, 66, 67, 68, 69, 70, 71, 72, 73, 74, 75, 76, 77, 78, 79, 80, 81, 82, 83, 84, 85, 86, 87, 88, 89, 90, 91, 92, 93, 94, 95, 96, 97, 98, 99, 100, 101, 102, 103, 104, 105, 106, 107, 108, 109, 110, 111, 112, 113, 114, 115, 116, 117, 118, 119, 120, 121, 122, 123, 124, 125, 126, 127, 128, 129, 130, 131, 132, 133, 134, 135, 136, 137, 138, 139, 140, 141, 142, 143, 144, 145, 146, 147, 148, 149, 150, 151, 152, 153, 154, 155, 156, 157, 158, 159, 160, 161, 162, 163, 164, 165, 166, 167, 168, 169, 170, 171, 172, 173, 174, 175, 176, 177, 178, 179, 180, 181, 182, 183, 184, 185, 186, 187, 188, 189, 190, 191, 192, 193, 194, 195, 196, 197, 198, 199, 200, 201, 202, 203, 204, 205, 206, 207, 208, 209, 210, 211, 212, 213, 214, 215, 216, 217, 218, 219, 220, 221, 222, 223, 224, 225, 226, 227, 228, 229, 230, 231, 232, 233, 234, 235, 236, 237, 238, 239, 240, 241, 242, 243, 244, 245, 246, 247, 248, 249, 250, 251, 252, 253, 254, 255, 256, 257, 258, 259, 260, 261, 262, 263, 264, 265, 266, 267, 268, 269, 270, 271, 272, 273, 274, 275],
      "LargestImagePixelValue": [1442, 1914, 1835, 1855, 1827, 1427, 1464, 1431, 1412, 1535, 1498, 1466, 1444, 1508, 1529, 1910, 1528, 1611, 1388, 1572, 1396, 1662, 1435, 1499, 1447, 1492, 1619, 1495, 1594, 1598, 1614, 1433, 1448, 1400, 1423, 1625, 1495, 1671, 1436, 1469, 1435, 1404, 1460, 1440, 1478, 1595, 1416, 1399, 1588, 1493, 1485, 1519, 1400, 1643, 1612, 1379, 1425, 1403, 1429, 1639, 1676, 1506, 1402, 1414, 1444, 1402, 1461, 1522, 1443, 1429, 1742, 1474, 1709, 1399, 1802, 1698, 1865, 1375, 1383, 1401, 1596, 1788, 1386, 1406, 1610, 1397, 1394, 1577, 1435, 1363, 1443, 1400, 1424, 1931, 1850, 1549, 1674, 1512, 1791, 1791, 1560, 1404, 1465, 1379, 1484, 1477, 1386, 1715, 1401, 1414, 1398, 1441, 1383, 1433, 1395, 1620, 1611, 1384, 1693, 1644, 1622, 1418, 1606, 1385, 1511, 1418, 1380, 1700, 1534, 1380, 1376, 1402, 1518, 1406, 1408, 1396, 1432, 1643, 1377, 1742, 1569, 1618, 1701, 1397, 1366, 1373, 1620, 1454, 1441, 1446, 1419, 1566, 1472, 1412, 1611, 1366, 1348, 1427, 1711, 1465, 1822, 1366, 1586, 1669, 1853, 1633, 1484, 1369, 1378, 1473, 1566, 1438, 1433, 1355, 1577, 1402, 1371, 1364, 1626, 1597, 1639, 1584, 1552, 1480, 1437, 1564, 1655, 1657, 1612, 1377, 1419, 1545, 1407, 1467, 1431, 1394, 1388, 1599, 1365, 1487, 1381, 1372, 1561, 1353, 1379, 1544, 1357, 1770, 1696, 1404, 1696, 1542, 1373, 1475, 1509, 1360, 1369, 1457, 1661, 1612, 1541, 1379, 1394, 1557, 1587, 1357, 1379, 1477, 1371, 1383, 1428, 1374, 1619, 1663, 1339, 1410, 1463, 1421, 1443, 1541, 1415, 1361, 1459, 1493, 1535, 1361, 1359, 1371, 1388, 1373, 1410, 1609, 1356, 1467, 1420, 1461, 1567, 1403, 1411, 1509, 1447, 1369, 1556, 1372, 1437, 1465, 1371, 1647, 1989, 1448, 1548, 1506, 1533, 1716, 1455],
      "WindowCenter": [655.0, 655.0, 652.0, 650.0, 650.0, 650.0, 650.0, 651.0, 651.0, 651.0, 651.0, 652.0, 652.0, 653.0, 652.0, 653.0, 651.0, 652.0, 651.0, 652.0, 650.0, 652.0, 652.0, 652.0, 652.0, 652.0, 653.0, 652.0, 652.0, 650.0, 650.0, 650.0, 651.0, 651.0, 651.0, 652.0, 652.0, 652.0, 651.0, 651.0, 651.0, 650.0, 650.0, 651.0, 651.0, 653.0, 652.0, 652.0, 652.0, 651.0, 652.0, 652.0, 652.0, 651.0, 651.0, 651.0, 651.0, 652.0, 652.0, 652.0, 652.0, 651.0, 651.0, 650.0, 651.0, 651.0, 652.0, 653.0, 653.0, 653.0, 653.0, 651.0, 651.0, 651.0, 652.0, 651.0, 650.0, 649.0, 649.0, 650.0, 650.0, 650.0, 649.0, 649.0, 651.0, 650.0, 650.0, 652.0, 651.0, 652.0, 652.0, 653.0, 653.0, 655.0, 654.0, 651.0, 651.0, 651.0, 651.0, 650.0, 649.0, 649.0, 650.0, 650.0, 650.0, 651.0, 651.0, 651.0, 650.0, 650.0, 651.0, 652.0, 653.0, 653.0, 651.0, 651.0, 651.0, 652.0, 651.0, 650.0, 650.0, 649.0, 650.0, 650.0, 650.0, 651.0, 651.0, 651.0, 650.0, 649.0, 650.0, 650.0, 651.0, 651.0, 653.0, 654.0, 652.0, 653.0, 651.0, 652.0, 651.0, 650.0, 649.0, 647.0, 648.0, 650.0, 651.0, 650.0, 649.0, 649.0, 649.0, 650.0, 650.0, 650.0, 651.0, 651.0, 651.0, 653.0, 652.0, 650.0, 652.0, 651.0, 650.0, 650.0, 650.0, 649.0, 649.0, 650.0, 651.0, 650.0, 650.0, 649.0, 649.0, 650.0, 651.0, 650.0, 651.0, 651.0, 653.0, 653.0, 652.0, 650.0, 650.0, 649.0, 650.0, 649.0, 647.0, 647.0, 648.0, 650.0, 651.0, 651.0, 651.0, 650.0, 649.0, 650.0, 651.0, 651.0, 650.0, 651.0, 651.0, 651.0, 652.0, 651.0, 651.0, 651.0, 651.0, 652.0, 652.0, 651.0, 651.0, 651.0, 651.0, 650.0, 649.0, 649.0, 648.0, 649.0, 650.0, 650.0, 649.0, 650.0, 651.0, 651.0, 651.0, 651.0, 650.0, 650.0, 649.0, 648.0, 650.0, 652.0, 654.0, 652.0, 650.0, 649.0, 650.0, 649.0, 648.0, 647.0, 648.0, 648.0, 649.0, 650.0, 651.0, 650.0, 649.0, 650.0, 650.0, 652.0, 651.0, 651.0, 650.0, 651.0, 652.0, 652.0, 652.0, 649.0, 649.0, 650.0, 649.0, 649.0, 651.0, 651.0, 651.0, 652.0, 651.0, 651.0, 653.0, 651.0, 649.0, 649.0, 649.0, 650.0, 648.0],
      "WindowWidth": [1396.0, 1394.0, 1388.0, 1383.0, 1382.0, 1382.0, 1383.0, 1385.0, 1386.0, 1385.0, 1385.0, 1387.0, 1389.0, 1391.0, 1389.0, 1391.0, 1384.0, 1387.0, 1385.0, 1388.0, 1384.0, 1387.0, 1387.0, 1389.0, 1388.0, 1387.0, 1390.0, 1388.0, 1388.0, 1384.0, 1383.0, 1384.0, 1385.0, 1387.0, 1386.0, 1387.0, 1387.0, 1387.0, 1385.0, 1384.0, 1384.0, 1383.0, 1384.0, 1385.0, 1387.0, 1389.0, 1388.0, 1388.0, 1387.0, 1386.0, 1387.0, 1388.0, 1387.0, 1386.0, 1386.0, 1385.0, 1386.0, 1388.0, 1387.0, 1388.0, 1389.0, 1387.0, 1386.0, 1384.0, 1386.0, 1386.0, 1388.0, 1389.0, 1391.0, 1389.0, 1389.0, 1386.0, 1386.0, 1385.0, 1387.0, 1385.0, 1384.0, 1381.0, 1381.0, 1383.0, 1384.0, 1383.0, 1380.0, 1380.0, 1385.0, 1383.0, 1383.0, 1388.0, 1386.0, 1388.0, 1389.0, 1391.0, 1390.0, 1394.0, 1393.0, 1386.0, 1385.0, 1386.0, 1386.0, 1383.0, 1381.0, 1382.0, 1383.0, 1384.0, 1384.0, 1385.0, 1385.0, 1386.0, 1383.0, 1383.0, 1385.0, 1388.0, 1390.0, 1389.0, 1386.0, 1385.0, 1386.0, 1387.0, 1386.0, 1382.0, 1383.0, 1381.0, 1382.0, 1383.0, 1384.0, 1385.0, 1385.0, 1386.0, 1384.0, 1381.0, 1383.0, 1383.0, 1385.0, 1386.0, 1391.0, 1392.0, 1389.0, 1389.0, 1384.0, 1386.0, 1386.0, 1382.0, 1380.0, 1376.0, 1378.0, 1383.0, 1385.0, 1382.0, 1381.0, 1381.0, 1381.0, 1383.0, 1383.0, 1384.0, 1386.0, 1385.0, 1386.0, 1390.0, 1388.0, 1383.0, 1387.0, 1385.0, 1383.0, 1382.0, 1381.0, 1379.0, 1380.0, 1383.0, 1385.0, 1382.0, 1381.0, 1380.0, 1381.0, 1383.0, 1384.0, 1384.0, 1386.0, 1386.0, 1389.0, 1391.0, 1388.0, 1383.0, 1382.0, 1381.0, 1382.0, 1380.0, 1376.0, 1375.0, 1377.0, 1383.0, 1385.0, 1385.0, 1386.0, 1383.0, 1381.0, 1384.0, 1384.0, 1385.0, 1384.0, 1385.0, 1386.0, 1385.0, 1386.0, 1385.0, 1384.0, 1386.0, 1384.0, 1386.0, 1386.0, 1386.0, 1386.0, 1386.0, 1385.0, 1382.0, 1380.0, 1380.0, 1379.0, 1380.0, 1384.0, 1382.0, 1381.0, 1382.0, 1384.0, 1385.0, 1384.0, 1385.0, 1384.0, 1383.0, 1380.0, 1379.0, 1382.0, 1388.0, 1391.0, 1388.0, 1382.0, 1381.0, 1382.0, 1380.0, 1377.0, 1376.0, 1378.0, 1379.0, 1381.0, 1382.0, 1385.0, 1383.0, 1381.0, 1382.0, 1383.0, 1386.0, 1384.0, 1385.0, 1384.0, 1385.0, 1388.0, 1388.0, 1386.0, 1380.0, 1381.0, 1382.0, 1380.0, 1382.0, 1384.0, 1386.0, 1385.0, 1387.0, 1385.0, 1385.0, 1391.0, 1384.0, 1381.0, 1380.0, 1380.0, 1382.0, 1377.0]
    },
    "slices": {}
  }
}