{
  "AcquisitionMatrixPE": 64,
  "AcquisitionNumber": 1,
  "AcquisitionTime": "16:19:54.907500",
  "BandwidthPerPixelPhaseEncode": 31.888,
  "BaseResolution": 64,
  "BodyPartExamined": "HEAD",
  "CoilCombinationMethod": "Sum of Squares",
  "ConsistencyInfo": "N4_VE11C_LATEST_20160120",
  "ConversionSoftware": "dcm2niix",
  "ConversionSoftwareVersion": "v1.0.20211006",
  "DerivedVendorReportedEchoSpacing": 0.000489996,
  "DeviceSerialNumber": "167048",
  "EchoTime": 0.03,
  "EchoTrainLength": 64,
  "EffectiveEchoSpacing": 0.000489996,
  "FlipAngle": 90,
  "ImageOrientationPatientDICOM": [0.99897, -0.0192545, 0.0410757, 0.0244143, 0.991335, -0.129067],
  "ImageType": [
    "ORIGINAL",
    "PRIMARY",
    "M",
    "ND",
    "NORM",
    "MOSAIC"
],
  "ImagingFrequency": 123.261,
  "InPlanePhaseEncodingDirectionDICOM": "COL",
  "InstitutionAddress": "Azinhaga Santa Comba StreetNo,Coimbra,District,PT,3000",
  "InstitutionName": "ICNAS",
  "MRAcquisitionType": "2D",
  "MagneticFieldStrength": 3,
  "Manufacturer": "Siemens",
  "ManufacturersModelName": "Prisma_fit",
  "MatrixCoilMode": "SENSE",
  "Modality": "MR",
  "PartialFourier": 1,
  "PatientPosition": "HFS",
  "PercentPhaseFOV": 100,
  "PercentSampling": 100,
  "PhaseEncodingDirection": "j-",
  "PhaseEncodingSteps": 64,
  "PhaseResolution": 1,
  "PixelBandwidth": 2365,
  "ProcedureStepDescription": "RM_FUNCIONAL",
  "ProtocolName": "rtfmri_neurofeedback_MTRun4",
  "PulseSequenceDetails": "%SiemensSeq%\\ep2d_bold",
  "ReceiveCoilActiveElements": "HE1-4",
  "ReceiveCoilName": "HeadNeck_20",
  "ReconMatrixPE": 64,
  "RepetitionTime": 2,
  "SAR": 0.144351,
  "ScanOptions": "FS",
  "ScanningSequence": "EP",
  "SequenceName": "*epfid2d1_64",
  "SequenceVariant": "SK",
  "SeriesDescription": "rtfmri_neurofeedback_MTRun4",
  "SeriesNumber": 7,
  "ShimSetting": [10180, 2101, 8368, 474, 67, -70, -34, 23],
  "SliceThickness": 3,
  "SliceTiming": [0, 1.02, 0.06, 1.08, 0.12, 1.14, 0.18, 1.2, 0.24, 1.26, 0.3, 1.32, 0.36, 1.38, 0.42, 1.44, 0.48, 1.5, 0.54, 1.56, 0.6, 1.62, 0.66, 1.68, 0.72, 1.74, 0.78, 1.8, 0.84, 1.86, 0.9, 1.92, 0.96],
  "SoftwareVersions": "syngo MR E11",
  "SpacingBetweenSlices": 3,
  "StationName": "MRC35377",
  "TaskName": "nf",
  "TotalReadoutTime": 0.0308698,
  "TxRefAmp": 283.685,
  "dcmmeta_affine": [
    [-3.995879888534546, 0.0976572036743164, 0.11470397561788559, 125.69864654541016],
    [0.07701800018548965, 3.9653398990631104, -0.3898106813430786, -105.69893646240234],
    [0.164302796125412, 0.5162680149078369, 2.9723520278930664, -66.3701171875],
    [0.0, 0.0, 0.0, 1.0]
],
  "dcmmeta_reorient_transform": [
    [0.0, -1.0, 0.0, 63.0],
    [1.0, 0.0, 0.0, 0.0],
    [0.0, 0.0, 1.0, 0.0],
    [0.0, 0.0, 0.0, 1.0]
],
  "dcmmeta_shape": [64, 64, 33, 275],
  "dcmmeta_slice_dim": 2,
  "dcmmeta_version": 0.6,
  "global": {
    "const": {
      "AccessionNumber": "0",
      "AcquisitionMatrix": [64, 0, 0, 64],
      "AngioFlag": "N",
      "BitsAllocated": 16,
      "BitsStored": 12,
      "BodyPartExamined": "HEAD",
      "Columns": 384,
      "EchoNumbers": 1,
      "EchoTime": 30.0,
      "EchoTrainLength": 64,
      "FlipAngle": 90.0,
      "HighBit": 11,
      "ImageOrientationPatient": [0.99897, -0.0192545, 0.0410757, 0.0244143, 0.991335, -0.129067],
      "ImagePositionPatient": [-786.817, -766.249, 22.4692],
      "ImageType": [
        "ORIGINAL",
        "PRIMARY",
        "M",
        "ND",
        "NORM",
        "MOSAIC"
],
      "ImagedNucleus": "1H",
      "ImagingFrequency": 123.261,
      "InPlanePhaseEncodingDirection": "COL",
      "MRAcquisitionType": "2D",
      "MagneticFieldStrength": 3.0,
      "Manufacturer": "SIEMENS",
      "ManufacturerModelName": "Prisma_fit",
      "Modality": "MR",
      "NumberOfAverages": 1.0,
      "NumberOfFrames": 1,
      "NumberOfPhaseEncodingSteps": 64,
      "PercentPhaseFieldOfView": 100.0,
      "PercentSampling": 100.0,
      "PerformedProcedureStepStartTime": "151118.336000",
      "PhotometricInterpretation": "MONOCHROME2",
      "PixelBandwidth": 2365.0,
      "PixelRepresentation": 0,
      "PixelSpacing": [4.0, 4.0],
      "ProtocolName": "rtfmri_neurofeedback_MTRun4",
      "RepetitionTime": 2000.0,
      "RequestAttributesSequence": [
        {
          "RequestedProcedureID": "1240",
          "ScheduledProcedureStepDescription": "RM_FUNCIONAL",
          "ScheduledProcedureStepID": "1"}
],
      "Rows": 384,
      "SAR": 0.144351,
      "SamplesPerPixel": 1,
      "ScanOptions": "FS",
      "ScanningSequence": "EP",
      "SequenceName": "*epfid2d1_64",
      "SequenceVariant": "SK",
      "SeriesDescription": "rtfmri_neurofeedback_MTRun4",
      "SeriesNumber": 7,
      "SeriesTime": "161957.850000",
      "SliceLocation": -47.2179,
      "SliceThickness": 3.0,
      "SmallestImagePixelValue": 0,
      "SoftwareVersions": "syngo MR E11",
      "SpacingBetweenSlices": 3.0,
      "SpecificCharacterSet": "ISO_IR 100",
      "StudyID": "1240",
      "StudyTime": "151116.799000",
      "TransmitCoilName": "Body",
      "VariableFlipAngleFlag": "N",
      "WindowCenterWidthExplanation": "Algo1",
      "dBdt": 0.0},
    "slices": {}
  },
  "time": {
    "samples": {
      "AcquisitionNumber": [1, 2, 3, 4, 5, 6, 7, 8, 9, 10, 11, 12, 13, 14, 15, 16, 17, 18, 19, 20, 21, 22, 23, 24, 25, 26, 27, 28, 29, 30, 31, 32, 33, 34, 35, 36, 37, 38, 39, 40, 41, 42, 43, 44, 45, 46, 47, 48, 49, 50, 51, 52, 53, 54, 55, 56, 57, 58, 59, 60, 61, 62, 63, 64, 65, 66, 67, 68, 69, 70, 71, 72, 73, 74, 75, 76, 77, 78, 79, 80, 81, 82, 83, 84, 85, 86, 87, 88, 89, 90, 91, 92, 93, 94, 95, 96, 97, 98, 99, 100, 101, 102, 103, 104, 105, 106, 107, 108, 109, 110, 111, 112, 113, 114, 115, 116, 117, 118, 119, 120, 121, 122, 123, 124, 125, 126, 127, 128, 129, 130, 131, 132, 133, 134, 135, 136, 137, 138, 139, 140, 141, 142, 143, 144, 145, 146, 147, 148, 149, 150, 151, 152, 153, 154, 155, 156, 157, 158, 159, 160, 161, 162, 163, 164, 165, 166, 167, 168, 169, 170, 171, 172, 173, 174, 175, 176, 177, 178, 179, 180, 181, 182, 183, 184, 185, 186, 187, 188, 189, 190, 191, 192, 193, 194, 195, 196, 197, 198, 199, 200, 201, 202, 203, 204, 205, 206, 207, 208, 209, 210, 211, 212, 213, 214, 215, 216, 217, 218, 219, 220, 221, 222, 223, 224, 225, 226, 227, 228, 229, 230, 231, 232, 233, 234, 235, 236, 237, 238, 239, 240, 241, 242, 243, 244, 245, 246, 247, 248, 249, 250, 251, 252, 253, 254, 255, 256, 257, 258, 259, 260, 261, 262, 263, 264, 265, 266, 267, 268, 269, 270, 271, 272, 273, 274, 275],
      "AcquisitionTime": ["161954.907500", "161956.907500", "161958.907500", "162000.907500", "162002.907500", "162004.907500", "162006.907500", "162008.907500", "162010.907500", "162012.907500", "162014.907500", "162016.907500", "162018.907500", "162020.907500", "162022.907500", "162024.907500", "162026.907500", "162028.907500", "162030.907500", "162032.907500", "162034.907500", "162036.907500", "162038.907500", "162040.907500", "162042.907500", "162044.907500", "162046.907500", "162048.907500", "162050.907500", "162052.907500", "162054.907500", "162056.907500", "162058.907500", "162100.907500", "162102.907500", "162104.907500", "162106.907500", "162108.907500", "162110.907500", "162112.907500", "162114.907500", "162116.907500", "162118.907500", "162120.907500", "162122.907500", "162124.907500", "162126.907500", "162128.907500", "162130.907500", "162132.907500", "162134.907500", "162136.907500", "162138.907500", "162140.907500", "162142.907500", "162144.907500", "162146.907500", "162148.907500", "162150.907500", "162152.907500", "162154.907500", "162156.907500", "162158.907500", "162200.907500", "162202.907500", "162204.907500", "162206.907500", "162208.907500", "162210.907500", "162212.907500", "162214.907500", "162216.907500", "162218.907500", "162220.907500", "162222.907500", "162224.907500", "162226.907500", "162228.907500", "162230.907500", "162232.907500", "162234.907500", "162236.907500", "162238.907500", "162240.907500", "162242.907500", "162244.907500", "162246.907500", "162248.907500", "162250.907500", "162252.907500", "162254.907500", "162256.907500", "162258.907500", "162300.907500", "162302.907500", "162304.907500", "162306.907500", "162308.907500", "162310.907500", "162312.907500", "162314.907500", "162316.907500", "162318.907500", "162320.907500", "162322.907500", "162324.907500", "162326.907500", "162328.907500", "162330.907500", "162332.907500", "162334.907500", "162336.907500", "162338.907500", "162340.907500", "162342.907500", "162344.907500", "162346.907500", "162348.907500", "162350.907500", "162352.907500", "162354.907500", "162356.907500", "162358.907500", "162400.907500", "162402.907500", "162404.907500", "162406.907500", "162408.907500", "162410.907500", "162412.907500", "162414.907500", "162416.907500", "162418.907500", "162420.907500", "162422.907500", "162424.907500", "162426.907500", "162428.907500", "162430.907500", "162432.907500", "162434.907500", "162436.907500", "162438.907500", "162440.907500", "162442.907500", "162444.907500", "162446.907500", "162448.907500", "162450.907500", "162452.907500", "162454.907500", "162456.907500", "162458.907500", "162500.907500", "162502.907500", "162504.907500", "162506.907500", "162508.907500", "162510.907500", "162512.907500", "162514.907500", "162516.907500", "162518.907500", "162520.907500", "162522.907500", "162524.907500", "162526.907500", "162528.907500", "162530.907500", "162532.907500", "162534.907500", "162536.907500", "162538.907500", "162540.907500", "162542.907500", "162544.907500", "162546.907500", "162548.907500", "162550.907500", "162552.907500", "162554.907500", "162556.907500", "162558.907500", "162600.907500", "162602.907500", "162604.907500", "162606.907500", "162608.907500", "162610.907500", "162612.907500", "162614.907500", "162616.907500", "162618.907500", "162620.907500", "162622.907500", "162624.907500", "162626.907500", "162628.907500", "162630.907500", "162632.907500", "162634.907500", "162636.907500", "162638.907500", "162640.907500", "162642.907500", "162644.907500", "162646.907500", "162648.907500", "162650.907500", "162652.907500", "162654.907500", "162656.907500", "162658.907500", "162700.907500", "162702.907500", "162704.907500", "162706.907500", "162708.907500", "162710.907500", "162712.907500", "162714.907500", "162716.907500", "162718.907500", "162720.907500", "162722.907500", "162724.907500", "162726.907500", "162728.907500", "162730.907500", "162732.907500", "162734.907500", "162736.907500", "162738.907500", "162740.907500", "162742.907500", "162744.907500", "162746.907500", "162748.907500", "162750.907500", "162752.907500", "162754.907500", "162756.907500", "162758.907500", "162800.907500", "162802.907500", "162804.907500", "162806.907500", "162808.907500", "162810.907500", "162812.907500", "162814.907500", "162816.907500", "162818.907500", "162820.907500", "162822.907500", "162824.907500", "162826.907500", "162828.907500", "162830.907500", "162832.907500", "162834.907500", "162836.907500", "162838.907500", "162840.907500", "162842.907500", "162844.907500", "162846.907500", "162848.907500", "162850.907500", "162852.907500", "162854.907500", "162856.907500", "162858.907500", "162900.907500", "162902.907500"],
      "ContentTime": ["161957.853000", "161959.849000", "162001.849000", "162003.849000", "162005.849000", "162007.848000", "162009.848000", "162011.849000", "162013.849000", "162015.849000", "162017.849000", "162019.849000", "162021.849000", "162023.849000", "162025.848000", "162027.849000", "162029.849000", "162031.849000", "162033.849000", "162035.849000", "162037.849000", "162039.849000", "162041.849000", "162043.848000", "162045.849000", "162047.849000", "162049.849000", "162051.849000", "162053.849000", "162055.849000", "162057.849000", "162059.848000", "162101.848000", "162103.849000", "162105.849000", "162107.849000", "162109.849000", "162111.849000", "162113.849000", "162115.849000", "162117.848000", "162119.848000", "162121.849000", "162123.849000", "162125.849000", "162127.849000", "162129.849000", "162131.849000", "162133.849000", "162135.848000", "162137.849000", "162139.849000", "162141.849000", "162143.849000", "162145.849000", "162147.849000", "162149.849000", "162151.849000", "162153.848000", "162155.849000", "162157.849000", "162159.849000", "162201.849000", "162203.849000", "162205.849000", "162207.849000", "162209.848000", "162211.848000", "162213.849000", "162215.849000", "162217.849000", "162219.849000", "162221.849000", "162223.849000", "162225.849000", "162227.848000", "162229.849000", "162231.849000", "162233.849000", "162235.849000", "162237.849000", "162239.849000", "162241.849000", "162243.849000", "162245.848000", "162247.849000", "162249.849000", "162251.849000", "162253.849000", "162255.849000", "162257.849000", "162259.849000", "162301.849000", "162303.848000", "162305.849000", "162307.849000", "162309.849000", "162311.849000", "162313.849000", "162315.849000", "162317.849000", "162319.848000", "162321.848000", "162323.849000", "162325.849000", "162327.849000", "162329.849000", "162331.849000", "162333.849000", "162335.849000", "162337.848000", "162339.849000", "162341.849000", "162343.849000", "162345.849000", "162347.849000", "162349.849000", "162351.849000", "162353.849000", "162355.848000", "162357.849000", "162359.849000", "162401.849000", "162403.849000", "162405.849000", "162407.849000", "162409.849000", "162411.849000", "162413.848000", "162415.849000", "162417.849000", "162419.849000", "162421.849000", "162423.849000", "162425.849000", "162427.849000", "162429.848000", "162431.848000", "162433.849000", "162435.849000", "162437.849000", "162439.849000", "162441.849000", "162443.849000", "162445.849000", "162447.848000", "162449.849000", "162451.849000", "162453.849000", "162455.849000", "162457.849000", "162459.881000", "162501.849000", "162503.849000", "162505.848000", "162507.849000", "162509.849000", "162511.849000", "162513.849000", "162515.849000", "162517.849000", "162519.849000", "162521.849000", "162523.848000", "162525.849000", "162527.849000", "162529.849000", "162531.849000", "162533.849000", "162535.849000", "162537.849000", "162539.848000", "162541.848000", "162543.849000", "162545.849000", "162547.849000", "162549.849000", "162551.849000", "162553.849000", "162555.849000", "162557.848000", "162559.849000", "162601.849000", "162603.849000", "162605.849000", "162607.849000", "162609.849000", "162611.849000", "162613.849000", "162615.848000", "162617.849000", "162619.849000", "162621.849000", "162623.849000", "162625.849000", "162627.849000", "162629.849000", "162631.849000", "162633.848000", "162635.849000", "162637.849000", "162639.849000", "162641.849000", "162643.849000", "162645.849000", "162647.849000", "162649.848000", "162651.848000", "162653.849000", "162655.849000", "162657.849000", "162659.849000", "162701.849000", "162703.849000", "162705.849000", "162707.848000", "162709.849000", "162711.849000", "162713.849000", "162715.849000", "162717.849000", "162719.849000", "162721.849000", "162723.849000", "162725.848000", "162727.849000", "162729.849000", "162731.849000", "162733.849000", "162735.849000", "162737.849000", "162739.849000", "162741.849000", "162743.848000", "162745.849000", "162747.849000", "162749.849000", "162751.849000", "162753.849000", "162755.849000", "162757.849000", "162759.848000", "162801.848000", "162803.849000", "162805.849000", "162807.849000", "162809.849000", "162811.849000", "162813.849000", "162815.849000", "162817.848000", "162819.849000", "162821.849000", "162823.849000", "162825.849000", "162827.849000", "162829.849000", "162831.849000", "162833.849000", "162835.848000", "162837.849000", "162839.849000", "162841.849000", "162843.849000", "162845.849000", "162847.849000", "162849.849000", "162851.848000", "162853.848000", "162855.849000", "162857.849000", "162859.849000", "162901.849000", "162903.849000", "162905.555000"],
      "InstanceCreationTime": ["161957.853000", "161959.849000", "162001.849000", "162003.849000", "162005.849000", "162007.848000", "162009.848000", "162011.849000", "162013.849000", "162015.849000", "162017.849000", "162019.849000", "162021.849000", "162023.849000", "162025.848000", "162027.849000", "162029.849000", "162031.849000", "162033.849000", "162035.849000", "162037.849000", "162039.849000", "162041.849000", "162043.848000", "162045.849000", "162047.849000", "162049.849000", "162051.849000", "162053.849000", "162055.849000", "162057.849000", "162059.848000", "162101.848000", "162103.849000", "162105.849000", "162107.849000", "162109.849000", "162111.849000", "162113.849000", "162115.849000", "162117.848000", "162119.848000", "162121.849000", "162123.849000", "162125.849000", "162127.849000", "162129.849000", "162131.849000", "162133.849000", "162135.848000", "162137.849000", "162139.849000", "162141.849000", "162143.849000", "162145.849000", "162147.849000", "162149.849000", "162151.849000", "162153.848000", "162155.849000", "162157.849000", "162159.849000", "162201.849000", "162203.849000", "162205.849000", "162207.849000", "162209.848000", "162211.848000", "162213.849000", "162215.849000", "162217.849000", "162219.849000", "162221.849000", "162223.849000", "162225.849000", "162227.848000", "162229.849000", "162231.849000", "162233.849000", "162235.849000", "162237.849000", "162239.849000", "162241.849000", "162243.849000", "162245.848000", "162247.849000", "162249.849000", "162251.849000", "162253.849000", "162255.849000", "162257.849000", "162259.849000", "162301.849000", "162303.848000", "162305.849000", "162307.849000", "162309.849000", "162311.849000", "162313.849000", "162315.849000", "162317.849000", "162319.848000", "162321.848000", "162323.849000", "162325.849000", "162327.849000", "162329.849000", "162331.849000", "162333.849000", "162335.849000", "162337.848000", "162339.849000", "162341.849000", "162343.849000", "162345.849000", "162347.849000", "162349.849000", "162351.849000", "162353.849000", "162355.848000", "162357.849000", "162359.849000", "162401.849000", "162403.849000", "162405.849000", "162407.849000", "162409.849000", "162411.849000", "162413.848000", "162415.849000", "162417.849000", "162419.849000", "162421.849000", "162423.849000", "162425.849000", "162427.849000", "162429.848000", "162431.848000", "162433.849000", "162435.849000", "162437.849000", "162439.849000", "162441.849000", "162443.849000", "162445.849000", "162447.848000", "162449.849000", "162451.849000", "162453.849000", "162455.849000", "162457.849000", "162459.881000", "162501.849000", "162503.849000", "162505.848000", "162507.849000", "162509.849000", "162511.849000", "162513.849000", "162515.849000", "162517.849000", "162519.849000", "162521.849000", "162523.848000", "162525.849000", "162527.849000", "162529.849000", "162531.849000", "162533.849000", "162535.849000", "162537.849000", "162539.848000", "162541.848000", "162543.849000", "162545.849000", "162547.849000", "162549.849000", "162551.849000", "162553.849000", "162555.849000", "162557.848000", "162559.849000", "162601.849000", "162603.849000", "162605.849000", "162607.849000", "162609.849000", "162611.849000", "162613.849000", "162615.848000", "162617.849000", "162619.849000", "162621.849000", "162623.849000", "162625.849000", "162627.849000", "162629.849000", "162631.849000", "162633.848000", "162635.849000", "162637.849000", "162639.849000", "162641.849000", "162643.849000", "162645.849000", "162647.849000", "162649.848000", "162651.848000", "162653.849000", "162655.849000", "162657.849000", "162659.849000", "162701.849000", "162703.849000", "162705.849000", "162707.848000", "162709.849000", "162711.849000", "162713.849000", "162715.849000", "162717.849000", "162719.849000", "162721.849000", "162723.849000", "162725.848000", "162727.849000", "162729.849000", "162731.849000", "162733.849000", "162735.849000", "162737.849000", "162739.849000", "162741.849000", "162743.848000", "162745.849000", "162747.849000", "162749.849000", "162751.849000", "162753.849000", "162755.849000", "162757.849000", "162759.848000", "162801.848000", "162803.849000", "162805.849000", "162807.849000", "162809.849000", "162811.849000", "162813.849000", "162815.849000", "162817.848000", "162819.849000", "162821.849000", "162823.849000", "162825.849000", "162827.849000", "162829.849000", "162831.849000", "162833.849000", "162835.848000", "162837.849000", "162839.849000", "162841.849000", "162843.849000", "162845.849000", "162847.849000", "162849.849000", "162851.848000", "162853.848000", "162855.849000", "162857.849000", "162859.849000", "162901.849000", "162903.849000", "162905.555000"],
      "InstanceNumber": [1, 2, 3, 4, 5, 6, 7, 8, 9, 10, 11, 12, 13, 14, 15, 16, 17, 18, 19, 20, 21, 22, 23, 24, 25, 26, 27, 28, 29, 30, 31, 32, 33, 34, 35, 36, 37, 38, 39, 40, 41, 42, 43, 44, 45, 46, 47, 48, 49, 50, 51, 52, 53, 54, 55, 56, 57, 58, 59, 60, 61, 62, 63, 64, 65, 66, 67, 68, 69, 70, 71, 72, 73, 74, 75, 76, 77, 78, 79, 80, 81, 82, 83, 84, 85, 86, 87, 88, 89, 90, 91, 92, 93, 94, 95, 96, 97, 98, 99, 100, 101, 102, 103, 104, 105, 106, 107, 108, 109, 110, 111, 112, 113, 114, 115, 116, 117, 118, 119, 120, 121, 122, 123, 124, 125, 126, 127, 128, 129, 130, 131, 132, 133, 134, 135, 136, 137, 138, 139, 140, 141, 142, 143, 144, 145, 146, 147, 148, 149, 150, 151, 152, 153, 154, 155, 156, 157, 158, 159, 160, 161, 162, 163, 164, 165, 166, 167, 168, 169, 170, 171, 172, 173, 174, 175, 176, 177, 178, 179, 180, 181, 182, 183, 184, 185, 186, 187, 188, 189, 190, 191, 192, 193, 194, 195, 196, 197, 198, 199, 200, 201, 202, 203, 204, 205, 206, 207, 208, 209, 210, 211, 212, 213, 214, 215, 216, 217, 218, 219, 220, 221, 222, 223, 224, 225, 226, 227, 228, 229, 230, 231, 232, 233, 234, 235, 236, 237, 238, 239, 240, 241, 242, 243, 244, 245, 246, 247, 248, 249, 250, 251, 252, 253, 254, 255, 256, 257, 258, 259, 260, 261, 262, 263, 264, 265, 266, 267, 268, 269, 270, 271, 272, 273, 274, 275],
      "LargestImagePixelValue": [1758, 1615, 1449, 1381, 1390, 1382, 1486, 1440, 1386, 1439, 1404, 1513, 1389, 1383, 1601, 1501, 1702, 1386, 1377, 1516, 1383, 1600, 1417, 1374, 1623, 1394, 1491, 1535, 1376, 1396, 1624, 1646, 1514, 1412, 1394, 1382, 1442, 1681, 1571, 1457, 1362, 1462, 1373, 1425, 1444, 1397, 1532, 1374, 1352, 1404, 1636, 2101, 1704, 1480, 1423, 1389, 1582, 1909, 1484, 2072, 1501, 1435, 1408, 1375, 1409, 1584, 1411, 1358, 1407, 1522, 1464, 1513, 1723, 1462, 1465, 1576, 1402, 1445, 1433, 1388, 1419, 2007, 1742, 1455, 1577, 1365, 1557, 1697, 1384, 1540, 1430, 1387, 1406, 1396, 1469, 1523, 1449, 1464, 1411, 1361, 1496, 1372, 1595, 1393, 1400, 1657, 1435, 1631, 1660, 1373, 1373, 1685, 1381, 1405, 1516, 1368, 1510, 1411, 1441, 1640, 1481, 1602, 1780, 1341, 1543, 1592, 1362, 1392, 1632, 1367, 1433, 1404, 1373, 1408, 1447, 1414, 1459, 1684, 1377, 1364, 1386, 1599, 1353, 1399, 1575, 1439, 1585, 1491, 1564, 1419, 1364, 1454, 1662, 1386, 1438, 1701, 1390, 1458, 1372, 1430, 1422, 1382, 1534, 1754, 1841, 1364, 1403, 1402, 1406, 1433, 1499, 1598, 1470, 1387, 1493, 1359, 1368, 1463, 1618, 1398, 1369, 1391, 1551, 1429, 1563, 1425, 1459, 1445, 1378, 1379, 1583, 1399, 1546, 1392, 1441, 1385, 1440, 1362, 1421, 1358, 1416, 1506, 1426, 1584, 1705, 1559, 1439, 1451, 1413, 1361, 1385, 1426, 1385, 1395, 1509, 1420, 1464, 1394, 1448, 1431, 1419, 1387, 1427, 1478, 1413, 1445, 1413, 1422, 1410, 1394, 1395, 1457, 1460, 1413, 1526, 1420, 1580, 1567, 1395, 1631, 1454, 1566, 1381, 1372, 1405, 1437, 1602, 1407, 1485, 1436, 1595, 1440, 1522, 1398, 1611, 1387, 1480, 1691, 1368, 1511, 1367, 1914, 1636, 1431, 1388, 1818, 1598, 1376, 1492, 1517, 1408, 1592, 1430, 1443, 1370],
      "WindowCenter": [653.0, 652.0, 651.0, 652.0, 653.0, 652.0, 652.0, 653.0, 655.0, 654.0, 654.0, 654.0, 654.0, 655.0, 656.0, 656.0, 656.0, 654.0, 654.0, 655.0, 654.0, 654.0, 654.0, 654.0, 655.0, 655.0, 654.0, 654.0, 654.0, 653.0, 654.0, 655.0, 654.0, 652.0, 652.0, 654.0, 655.0, 654.0, 653.0, 652.0, 652.0, 653.0, 654.0, 654.0, 655.0, 654.0, 654.0, 655.0, 655.0, 657.0, 657.0, 657.0, 654.0, 653.0, 654.0, 656.0, 656.0, 657.0, 655.0, 655.0, 652.0, 652.0, 653.0, 652.0, 651.0, 651.0, 651.0, 652.0, 656.0, 657.0, 655.0, 655.0, 655.0, 653.0, 653.0, 654.0, 654.0, 654.0, 654.0, 656.0, 657.0, 658.0, 657.0, 654.0, 654.0, 654.0, 653.0, 653.0, 651.0, 652.0, 652.0, 651.0, 652.0, 654.0, 654.0, 654.0, 653.0, 653.0, 654.0, 655.0, 654.0, 655.0, 657.0, 656.0, 655.0, 656.0, 657.0, 657.0, 655.0, 653.0, 655.0, 656.0, 655.0, 654.0, 655.0, 655.0, 656.0, 655.0, 654.0, 653.0, 654.0, 654.0, 654.0, 653.0, 653.0, 653.0, 653.0, 653.0, 654.0, 653.0, 652.0, 652.0, 653.0, 653.0, 653.0, 654.0, 653.0, 653.0, 653.0, 654.0, 654.0, 654.0, 654.0, 654.0, 655.0, 655.0, 655.0, 654.0, 653.0, 653.0, 654.0, 654.0, 654.0, 653.0, 654.0, 654.0, 652.0, 652.0, 653.0, 654.0, 654.0, 655.0, 655.0, 655.0, 655.0, 653.0, 653.0, 654.0, 655.0, 654.0, 653.0, 654.0, 653.0, 652.0, 652.0, 654.0, 655.0, 655.0, 654.0, 653.0, 653.0, 653.0, 655.0, 654.0, 654.0, 654.0, 654.0, 654.0, 655.0, 656.0, 656.0, 654.0, 654.0, 653.0, 653.0, 653.0, 654.0, 653.0, 654.0, 655.0, 655.0, 655.0, 656.0, 656.0, 656.0, 655.0, 653.0, 651.0, 651.0, 653.0, 652.0, 653.0, 653.0, 653.0, 653.0, 653.0, 653.0, 652.0, 653.0, 653.0, 653.0, 653.0, 654.0, 654.0, 653.0, 653.0, 653.0, 654.0, 655.0, 656.0, 655.0, 654.0, 655.0, 657.0, 657.0, 655.0, 654.0, 653.0, 655.0, 656.0, 655.0, 653.0, 652.0, 654.0, 656.0, 655.0, 655.0, 653.0, 654.0, 655.0, 656.0, 655.0, 656.0, 655.0, 656.0, 656.0, 656.0, 655.0, 653.0, 654.0, 654.0, 655.0, 653.0, 653.0, 655.0, 656.0, 655.0, 655.0, 655.0, 654.0, 654.0, 654.0, 653.0, 653.0, 653.0],
      "WindowWidth": [1391.0, 1387.0, 1386.0, 1388.0, 1389.0, 1388.0, 1388.0, 1390.0, 1394.0, 1394.0, 1392.0, 1393.0, 1393.0, 1394.0, 1397.0, 1397.0, 1397.0, 1394.0, 1393.0, 1394.0, 1393.0, 1394.0, 1393.0, 1393.0, 1396.0, 1395.0, 1393.0, 1392.0, 1392.0, 1391.0, 1392.0, 1395.0, 1392.0, 1388.0, 1389.0, 1394.0, 1394.0, 1392.0, 1390.0, 1388.0, 1387.0, 1391.0, 1393.0, 1394.0, 1394.0, 1393.0, 1393.0, 1395.0, 1395.0, 1399.0, 1399.0, 1399.0, 1393.0, 1391.0, 1394.0, 1398.0, 1398.0, 1400.0, 1395.0, 1395.0, 1388.0, 1389.0, 1390.0, 1388.0, 1386.0, 1385.0, 1385.0, 1389.0, 1397.0, 1399.0, 1396.0, 1394.0, 1394.0, 1391.0, 1389.0, 1392.0, 1392.0, 1393.0, 1394.0, 1398.0, 1399.0, 1403.0, 1399.0, 1392.0, 1393.0, 1392.0, 1390.0, 1389.0, 1386.0, 1388.0, 1388.0, 1385.0, 1387.0, 1392.0, 1393.0, 1392.0, 1391.0, 1391.0, 1392.0, 1394.0, 1394.0, 1396.0, 1400.0, 1399.0, 1396.0, 1398.0, 1401.0, 1399.0, 1394.0, 1391.0, 1394.0, 1397.0, 1395.0, 1393.0, 1395.0, 1396.0, 1397.0, 1396.0, 1393.0, 1391.0, 1393.0, 1392.0, 1392.0, 1391.0, 1390.0, 1390.0, 1390.0, 1390.0, 1392.0, 1391.0, 1389.0, 1389.0, 1391.0, 1390.0, 1391.0, 1392.0, 1390.0, 1390.0, 1390.0, 1393.0, 1392.0, 1394.0, 1393.0, 1393.0, 1394.0, 1396.0, 1394.0, 1393.0, 1391.0, 1391.0, 1393.0, 1392.0, 1393.0, 1391.0, 1393.0, 1393.0, 1388.0, 1389.0, 1391.0, 1392.0, 1393.0, 1395.0, 1396.0, 1394.0, 1394.0, 1391.0, 1390.0, 1393.0, 1395.0, 1392.0, 1392.0, 1392.0, 1390.0, 1387.0, 1389.0, 1392.0, 1395.0, 1395.0, 1393.0, 1391.0, 1391.0, 1391.0, 1395.0, 1393.0, 1392.0, 1393.0, 1393.0, 1393.0, 1395.0, 1398.0, 1399.0, 1393.0, 1392.0, 1390.0, 1391.0, 1391.0, 1393.0, 1391.0, 1392.0, 1395.0, 1394.0, 1395.0, 1398.0, 1398.0, 1397.0, 1395.0, 1391.0, 1387.0, 1387.0, 1390.0, 1389.0, 1389.0, 1391.0, 1389.0, 1390.0, 1391.0, 1389.0, 1389.0, 1390.0, 1390.0, 1390.0, 1390.0, 1393.0, 1393.0, 1391.0, 1390.0, 1391.0, 1393.0, 1395.0, 1397.0, 1395.0, 1394.0, 1396.0, 1400.0, 1400.0, 1395.0, 1393.0, 1390.0, 1395.0, 1398.0, 1394.0, 1391.0, 1389.0, 1393.0, 1398.0, 1395.0, 1394.0, 1391.0, 1393.0, 1395.0, 1397.0, 1395.0, 1397.0, 1396.0, 1397.0, 1398.0, 1397.0, 1394.0, 1391.0, 1392.0, 1392.0, 1395.0, 1390.0, 1390.0, 1395.0, 1397.0, 1395.0, 1396.0, 1395.0, 1393.0, 1392.0, 1394.0, 1391.0, 1391.0, 1391.0]
    },
    "slices": {}
  }
}