{
  "AcquisitionMatrixPE": 64,
  "AcquisitionNumber": 1,
  "AcquisitionTime": "15:06:21.935000",
  "BandwidthPerPixelPhaseEncode": 31.888,
  "BaseResolution": 64,
  "BodyPartExamined": "HEAD",
  "CoilCombinationMethod": "Sum of Squares",
  "ConsistencyInfo": "N4_VE11C_LATEST_20160120",
  "ConversionSoftware": "dcm2niix",
  "ConversionSoftwareVersion": "v1.0.20211006",
  "DerivedVendorReportedEchoSpacing": 0.000489996,
  "DeviceSerialNumber": "167048",
  "EchoTime": 0.03,
  "EchoTrainLength": 64,
  "EffectiveEchoSpacing": 0.000489996,
  "FlipAngle": 90,
  "ImageOrientationPatientDICOM": [0.999116, 0.0159835, -0.0388849, -0.0174396, 0.999148, -0.0374018],
  "ImageType": [
    "ORIGINAL",
    "PRIMARY",
    "M",
    "ND",
    "NORM",
    "MOSAIC"
],
  "ImagingFrequency": 123.261,
  "InPlanePhaseEncodingDirectionDICOM": "COL",
  "InstitutionAddress": "Azinhaga Santa Comba StreetNo,Coimbra,District,PT,3000",
  "InstitutionName": "ICNAS",
  "MRAcquisitionType": "2D",
  "MagneticFieldStrength": 3,
  "Manufacturer": "Siemens",
  "ManufacturersModelName": "Prisma_fit",
  "MatrixCoilMode": "SENSE",
  "Modality": "MR",
  "PartialFourier": 1,
  "PatientPosition": "HFS",
  "PercentPhaseFOV": 100,
  "PercentSampling": 100,
  "PhaseEncodingDirection": "j-",
  "PhaseEncodingSteps": 64,
  "PhaseResolution": 1,
  "PixelBandwidth": 2365,
  "ProcedureStepDescription": "RM_FUNCIONAL",
  "ProtocolName": "rtfmri_neurofeedback_MTRun2",
  "PulseSequenceDetails": "%SiemensSeq%\\ep2d_bold",
  "ReceiveCoilActiveElements": "HE1-4",
  "ReceiveCoilName": "HeadNeck_20",
  "ReconMatrixPE": 64,
  "RepetitionTime": 2,
  "SAR": 0.103409,
  "ScanOptions": "FS",
  "ScanningSequence": "EP",
  "SequenceName": "*epfid2d1_64",
  "SequenceVariant": "SK",
  "SeriesDescription": "rtfmri_neurofeedback_MTRun2",
  "SeriesNumber": 5,
  "ShimSetting": [10172, 2130, 8366, 407, 62, -82, 36, -51],
  "SliceThickness": 3,
  "SliceTiming": [0, 1.02, 0.06, 1.08, 0.12, 1.14, 0.18, 1.2, 0.24, 1.26, 0.3, 1.32, 0.36, 1.38, 0.42, 1.44, 0.48, 1.5, 0.54, 1.56, 0.6, 1.62, 0.66, 1.68, 0.72, 1.74, 0.78, 1.8, 0.84, 1.86, 0.9, 1.92, 0.96],
  "SoftwareVersions": "syngo MR E11",
  "SpacingBetweenSlices": 3,
  "StationName": "MRC35377",
  "TaskName": "nf",
  "TotalReadoutTime": 0.0308698,
  "TxRefAmp": 260.541,
  "dcmmeta_affine": [
    [-3.9964640140533447, -0.06975840032100677, -0.11476187407970428, 124.42488098144531],
    [-0.06393399834632874, 3.9965920448303223, -0.11414062231779099, -105.02245330810547],
    [-0.1555396020412445, 0.14960719645023346, 2.9956305027008057, -34.36064147949219],
    [0.0, 0.0, 0.0, 1.0]
],
  "dcmmeta_reorient_transform": [
    [0.0, -1.0, 0.0, 63.0],
    [1.0, 0.0, 0.0, 0.0],
    [0.0, 0.0, 1.0, 0.0],
    [0.0, 0.0, 0.0, 1.0]
],
  "dcmmeta_shape": [64, 64, 33, 275],
  "dcmmeta_slice_dim": 2,
  "dcmmeta_version": 0.6,
  "global": {
    "const": {
      "AccessionNumber": "0",
      "AcquisitionMatrix": [64, 0, 0, 64],
      "AngioFlag": "N",
      "BitsAllocated": 16,
      "BitsStored": 12,
      "BodyPartExamined": "HEAD",
      "Columns": 384,
      "EchoNumbers": 1,
      "EchoTime": 30.0,
      "EchoTrainLength": 64,
      "FlipAngle": 90.0,
      "HighBit": 11,
      "ImageOrientationPatient": [0.999116, 0.0159835, -0.0388849, -0.0174396, 0.999148, -0.0374018],
      "ImagePositionPatient": [-748.303, -796.447, 23.8881],
      "ImageType": [
        "ORIGINAL",
        "PRIMARY",
        "M",
        "ND",
        "NORM",
        "MOSAIC"
],
      "ImagedNucleus": "1H",
      "ImagingFrequency": 123.261,
      "InPlanePhaseEncodingDirection": "COL",
      "MRAcquisitionType": "2D",
      "MagneticFieldStrength": 3.0,
      "Manufacturer": "SIEMENS",
      "ManufacturerModelName": "Prisma_fit",
      "Modality": "MR",
      "NumberOfAverages": 1.0,
      "NumberOfFrames": 1,
      "NumberOfPhaseEncodingSteps": 64,
      "PercentPhaseFieldOfView": 100.0,
      "PercentSampling": 100.0,
      "PerformedProcedureStepStartTime": "142751.045000",
      "PhotometricInterpretation": "MONOCHROME2",
      "PixelBandwidth": 2365.0,
      "PixelRepresentation": 0,
      "PixelSpacing": [4.0, 4.0],
      "ProtocolName": "rtfmri_neurofeedback_MTRun2",
      "RepetitionTime": 2000.0,
      "RequestAttributesSequence": [
        {
          "RequestedProcedureID": "1301",
          "ScheduledProcedureStepDescription": "RM_FUNCIONAL",
          "ScheduledProcedureStepID": "1"}
],
      "Rows": 384,
      "SAR": 0.103409,
      "SamplesPerPixel": 1,
      "ScanOptions": "FS",
      "ScanningSequence": "EP",
      "SequenceName": "*epfid2d1_64",
      "SequenceVariant": "SK",
      "SeriesDescription": "rtfmri_neurofeedback_MTRun2",
      "SeriesNumber": 5,
      "SeriesTime": "150624.309000",
      "SliceLocation": -35.0745,
      "SliceThickness": 3.0,
      "SmallestImagePixelValue": 0,
      "SoftwareVersions": "syngo MR E11",
      "SpacingBetweenSlices": 3.0,
      "SpecificCharacterSet": "ISO_IR 100",
      "StudyID": "1301",
      "StudyTime": "142749.391000",
      "TransmitCoilName": "Body",
      "VariableFlipAngleFlag": "N",
      "WindowCenterWidthExplanation": "Algo1",
      "dBdt": 0.0},
    "slices": {}
  },
  "time": {
    "samples": {
      "AcquisitionNumber": [1, 2, 3, 4, 5, 6, 7, 8, 9, 10, 11, 12, 13, 14, 15, 16, 17, 18, 19, 20, 21, 22, 23, 24, 25, 26, 27, 28, 29, 30, 31, 32, 33, 34, 35, 36, 37, 38, 39, 40, 41, 42, 43, 44, 45, 46, 47, 48, 49, 50, 51, 52, 53, 54, 55, 56, 57, 58, 59, 60, 61, 62, 63, 64, 65, 66, 67, 68, 69, 70, 71, 72, 73, 74, 75, 76, 77, 78, 79, 80, 81, 82, 83, 84, 85, 86, 87, 88, 89, 90, 91, 92, 93, 94, 95, 96, 97, 98, 99, 100, 101, 102, 103, 104, 105, 106, 107, 108, 109, 110, 111, 112, 113, 114, 115, 116, 117, 118, 119, 120, 121, 122, 123, 124, 125, 126, 127, 128, 129, 130, 131, 132, 133, 134, 135, 136, 137, 138, 139, 140, 141, 142, 143, 144, 145, 146, 147, 148, 149, 150, 151, 152, 153, 154, 155, 156, 157, 158, 159, 160, 161, 162, 163, 164, 165, 166, 167, 168, 169, 170, 171, 172, 173, 174, 175, 176, 177, 178, 179, 180, 181, 182, 183, 184, 185, 186, 187, 188, 189, 190, 191, 192, 193, 194, 195, 196, 197, 198, 199, 200, 201, 202, 203, 204, 205, 206, 207, 208, 209, 210, 211, 212, 213, 214, 215, 216, 217, 218, 219, 220, 221, 222, 223, 224, 225, 226, 227, 228, 229, 230, 231, 232, 233, 234, 235, 236, 237, 238, 239, 240, 241, 242, 243, 244, 245, 246, 247, 248, 249, 250, 251, 252, 253, 254, 255, 256, 257, 258, 259, 260, 261, 262, 263, 264, 265, 266, 267, 268, 269, 270, 271, 272, 273, 274, 275],
      "AcquisitionTime": ["150621.935000", "150623.935000", "150625.935000", "150627.935000", "150629.935000", "150631.935000", "150633.935000", "150635.935000", "150637.935000", "150639.935000", "150641.935000", "150643.935000", "150645.935000", "150647.935000", "150649.935000", "150651.935000", "150653.935000", "150655.935000", "150657.935000", "150659.935000", "150701.935000", "150703.935000", "150705.935000", "150707.935000", "150709.935000", "150711.935000", "150713.935000", "150715.935000", "150717.935000", "150719.935000", "150721.935000", "150723.935000", "150725.935000", "150727.935000", "150729.935000", "150731.935000", "150733.935000", "150735.935000", "150737.935000", "150739.935000", "150741.935000", "150743.935000", "150745.935000", "150747.935000", "150749.935000", "150751.935000", "150753.935000", "150755.935000", "150757.935000", "150759.935000", "150801.935000", "150803.935000", "150805.935000", "150807.935000", "150809.935000", "150811.935000", "150813.935000", "150815.935000", "150817.935000", "150819.935000", "150821.935000", "150823.935000", "150825.935000", "150827.935000", "150829.935000", "150831.935000", "150833.935000", "150835.935000", "150837.935000", "150839.935000", "150841.935000", "150843.935000", "150845.935000", "150847.935000", "150849.935000", "150851.935000", "150853.935000", "150855.935000", "150857.935000", "150859.935000", "150901.935000", "150903.935000", "150905.935000", "150907.935000", "150909.935000", "150911.935000", "150913.935000", "150915.935000", "150917.935000", "150919.935000", "150921.935000", "150923.935000", "150925.935000", "150927.935000", "150929.935000", "150931.935000", "150933.935000", "150935.935000", "150937.935000", "150939.935000", "150941.935000", "150943.935000", "150945.935000", "150947.935000", "150949.935000", "150951.935000", "150953.935000", "150955.935000", "150957.935000", "150959.935000", "151001.935000", "151003.935000", "151005.935000", "151007.935000", "151009.935000", "151011.935000", "151013.935000", "151015.935000", "151017.935000", "151019.935000", "151021.935000", "151023.935000", "151025.935000", "151027.935000", "151029.935000", "151031.935000", "151033.935000", "151035.935000", "151037.935000", "151039.935000", "151041.935000", "151043.935000", "151045.935000", "151047.935000", "151049.935000", "151051.935000", "151053.935000", "151055.935000", "151057.935000", "151059.935000", "151101.935000", "151103.935000", "151105.935000", "151107.935000", "151109.935000", "151111.935000", "151113.935000", "151115.935000", "151117.935000", "151119.935000", "151121.935000", "151123.935000", "151125.935000", "151127.935000", "151129.935000", "151131.935000", "151133.935000", "151135.935000", "151137.935000", "151139.935000", "151141.935000", "151143.935000", "151145.935000", "151147.935000", "151149.935000", "151151.935000", "151153.935000", "151155.935000", "151157.935000", "151159.935000", "151201.935000", "151203.935000", "151205.935000", "151207.935000", "151209.935000", "151211.935000", "151213.935000", "151215.935000", "151217.935000", "151219.935000", "151221.935000", "151223.935000", "151225.935000", "151227.935000", "151229.935000", "151231.935000", "151233.935000", "151235.935000", "151237.935000", "151239.935000", "151241.935000", "151243.935000", "151245.935000", "151247.935000", "151249.935000", "151251.935000", "151253.935000", "151255.935000", "151257.935000", "151259.935000", "151301.935000", "151303.935000", "151305.935000", "151307.935000", "151309.935000", "151311.935000", "151313.935000", "151315.935000", "151317.935000", "151319.935000", "151321.935000", "151323.935000", "151325.935000", "151327.935000", "151329.935000", "151331.935000", "151333.935000", "151335.935000", "151337.935000", "151339.935000", "151341.935000", "151343.935000", "151345.935000", "151347.935000", "151349.935000", "151351.935000", "151353.935000", "151355.935000", "151357.935000", "151359.935000", "151401.935000", "151403.935000", "151405.935000", "151407.935000", "151409.935000", "151411.935000", "151413.935000", "151415.935000", "151417.935000", "151419.935000", "151421.935000", "151423.935000", "151425.935000", "151427.935000", "151429.935000", "151431.935000", "151433.935000", "151435.935000", "151437.935000", "151439.935000", "151441.935000", "151443.935000", "151445.935000", "151447.935000", "151449.935000", "151451.935000", "151453.935000", "151455.935000", "151457.935000", "151459.935000", "151501.935000", "151503.935000", "151505.935000", "151507.935000", "151509.935000", "151511.935000", "151513.935000", "151515.935000", "151517.935000", "151519.935000", "151521.935000", "151523.935000", "151525.935000", "151527.935000", "151529.935000"],
      "ContentTime": ["150624.312000", "150626.307000", "150628.307000", "150630.308000", "150632.308000", "150634.307000", "150636.307000", "150638.307000", "150640.307000", "150642.307000", "150644.307000", "150646.307000", "150648.308000", "150650.308000", "150652.307000", "150654.307000", "150656.307000", "150658.307000", "150700.307000", "150702.307000", "150704.307000", "150706.308000", "150708.308000", "150710.307000", "150712.307000", "150714.307000", "150716.307000", "150718.307000", "150720.307000", "150722.308000", "150724.308000", "150726.307000", "150728.307000", "150730.307000", "150732.307000", "150734.307000", "150736.307000", "150738.307000", "150740.308000", "150742.308000", "150744.307000", "150746.307000", "150748.307000", "150750.307000", "150752.307000", "150754.307000", "150756.307000", "150758.308000", "150800.308000", "150802.307000", "150804.307000", "150806.307000", "150808.307000", "150810.307000", "150812.307000", "150814.307000", "150816.308000", "150818.308000", "150820.307000", "150822.307000", "150824.307000", "150826.307000", "150828.307000", "150830.307000", "150832.308000", "150834.308000", "150836.307000", "150838.307000", "150840.307000", "150842.307000", "150844.307000", "150846.307000", "150848.307000", "150850.308000", "150852.308000", "150854.307000", "150856.307000", "150858.307000", "150900.307000", "150902.307000", "150904.307000", "150906.307000", "150908.308000", "150910.308000", "150912.307000", "150914.307000", "150916.307000", "150918.307000", "150920.307000", "150922.307000", "150924.308000", "150926.308000", "150928.308000", "150930.307000", "150932.307000", "150934.307000", "150936.307000", "150938.307000", "150940.307000", "150942.308000", "150944.308000", "150946.307000", "150948.307000", "150950.307000", "150952.307000", "150954.307000", "150956.307000", "150958.307000", "151000.308000", "151002.308000", "151004.307000", "151006.307000", "151008.307000", "151010.307000", "151012.307000", "151014.307000", "151016.307000", "151018.308000", "151020.308000", "151022.307000", "151024.307000", "151026.307000", "151028.307000", "151030.307000", "151032.307000", "151034.308000", "151036.308000", "151038.308000", "151040.307000", "151042.307000", "151044.307000", "151046.307000", "151048.307000", "151050.307000", "151052.308000", "151054.308000", "151056.307000", "151058.307000", "151100.307000", "151102.307000", "151104.307000", "151106.307000", "151108.307000", "151110.308000", "151112.308000", "151114.307000", "151116.307000", "151118.307000", "151120.307000", "151122.307000", "151124.307000", "151126.307000", "151128.308000", "151130.308000", "151132.307000", "151134.307000", "151136.307000", "151138.307000", "151140.307000", "151142.307000", "151144.308000", "151146.308000", "151148.308000", "151150.307000", "151152.307000", "151154.307000", "151156.307000", "151158.307000", "151200.307000", "151202.308000", "151204.308000", "151206.307000", "151208.307000", "151210.307000", "151212.307000", "151214.307000", "151216.307000", "151218.307000", "151220.308000", "151222.308000", "151224.307000", "151226.307000", "151228.307000", "151230.307000", "151232.307000", "151234.307000", "151236.307000", "151238.308000", "151240.308000", "151242.307000", "151244.307000", "151246.307000", "151248.307000", "151250.307000", "151252.307000", "151254.308000", "151256.308000", "151258.308000", "151300.307000", "151302.307000", "151304.307000", "151306.307000", "151308.307000", "151310.307000", "151312.308000", "151314.308000", "151316.307000", "151318.307000", "151320.307000", "151322.307000", "151324.307000", "151326.307000", "151328.307000", "151330.308000", "151332.308000", "151334.307000", "151336.307000", "151338.307000", "151340.307000", "151342.307000", "151344.307000", "151346.307000", "151348.308000", "151350.308000", "151352.307000", "151354.307000", "151356.307000", "151358.320000", "151400.307000", "151402.307000", "151404.308000", "151406.308000", "151408.308000", "151410.307000", "151412.307000", "151414.307000", "151416.307000", "151418.307000", "151420.307000", "151422.308000", "151424.308000", "151426.307000", "151428.307000", "151430.307000", "151432.307000", "151434.307000", "151436.307000", "151438.307000", "151440.308000", "151442.308000", "151444.307000", "151446.307000", "151448.307000", "151450.307000", "151452.307000", "151454.307000", "151456.307000", "151458.308000", "151500.308000", "151502.307000", "151504.307000", "151506.307000", "151508.307000", "151510.307000", "151512.307000", "151514.308000", "151516.308000", "151518.307000", "151520.307000", "151522.307000", "151524.307000", "151526.307000", "151528.307000", "151530.307000", "151532.042000"],
      "InstanceCreationTime": ["150624.312000", "150626.307000", "150628.307000", "150630.308000", "150632.308000", "150634.307000", "150636.307000", "150638.307000", "150640.307000", "150642.307000", "150644.307000", "150646.307000", "150648.308000", "150650.308000", "150652.307000", "150654.307000", "150656.307000", "150658.307000", "150700.307000", "150702.307000", "150704.307000", "150706.308000", "150708.308000", "150710.307000", "150712.307000", "150714.307000", "150716.307000", "150718.307000", "150720.307000", "150722.308000", "150724.308000", "150726.307000", "150728.307000", "150730.307000", "150732.307000", "150734.307000", "150736.307000", "150738.307000", "150740.308000", "150742.308000", "150744.307000", "150746.307000", "150748.307000", "150750.307000", "150752.307000", "150754.307000", "150756.307000", "150758.308000", "150800.308000", "150802.307000", "150804.307000", "150806.307000", "150808.307000", "150810.307000", "150812.307000", "150814.307000", "150816.308000", "150818.308000", "150820.307000", "150822.307000", "150824.307000", "150826.307000", "150828.307000", "150830.307000", "150832.308000", "150834.308000", "150836.307000", "150838.307000", "150840.307000", "150842.307000", "150844.307000", "150846.307000", "150848.307000", "150850.308000", "150852.308000", "150854.307000", "150856.307000", "150858.307000", "150900.307000", "150902.307000", "150904.307000", "150906.307000", "150908.308000", "150910.308000", "150912.307000", "150914.307000", "150916.307000", "150918.307000", "150920.307000", "150922.307000", "150924.308000", "150926.308000", "150928.308000", "150930.307000", "150932.307000", "150934.307000", "150936.307000", "150938.307000", "150940.307000", "150942.308000", "150944.308000", "150946.307000", "150948.307000", "150950.307000", "150952.307000", "150954.307000", "150956.307000", "150958.307000", "151000.308000", "151002.308000", "151004.307000", "151006.307000", "151008.307000", "151010.307000", "151012.307000", "151014.307000", "151016.307000", "151018.308000", "151020.308000", "151022.307000", "151024.307000", "151026.307000", "151028.307000", "151030.307000", "151032.307000", "151034.308000", "151036.308000", "151038.308000", "151040.307000", "151042.307000", "151044.307000", "151046.307000", "151048.307000", "151050.307000", "151052.308000", "151054.308000", "151056.307000", "151058.307000", "151100.307000", "151102.307000", "151104.307000", "151106.307000", "151108.307000", "151110.308000", "151112.308000", "151114.307000", "151116.307000", "151118.307000", "151120.307000", "151122.307000", "151124.307000", "151126.307000", "151128.308000", "151130.308000", "151132.307000", "151134.307000", "151136.307000", "151138.307000", "151140.307000", "151142.307000", "151144.308000", "151146.308000", "151148.308000", "151150.307000", "151152.307000", "151154.307000", "151156.307000", "151158.307000", "151200.307000", "151202.308000", "151204.308000", "151206.307000", "151208.307000", "151210.307000", "151212.307000", "151214.307000", "151216.307000", "151218.307000", "151220.308000", "151222.308000", "151224.307000", "151226.307000", "151228.307000", "151230.307000", "151232.307000", "151234.307000", "151236.307000", "151238.308000", "151240.308000", "151242.307000", "151244.307000", "151246.307000", "151248.307000", "151250.307000", "151252.307000", "151254.308000", "151256.308000", "151258.308000", "151300.307000", "151302.307000", "151304.307000", "151306.307000", "151308.307000", "151310.307000", "151312.308000", "151314.308000", "151316.307000", "151318.307000", "151320.307000", "151322.307000", "151324.307000", "151326.307000", "151328.307000", "151330.308000", "151332.308000", "151334.307000", "151336.307000", "151338.307000", "151340.307000", "151342.307000", "151344.307000", "151346.307000", "151348.308000", "151350.308000", "151352.307000", "151354.307000", "151356.307000", "151358.320000", "151400.307000", "151402.307000", "151404.308000", "151406.308000", "151408.308000", "151410.307000", "151412.307000", "151414.307000", "151416.307000", "151418.307000", "151420.307000", "151422.308000", "151424.308000", "151426.307000", "151428.307000", "151430.307000", "151432.307000", "151434.307000", "151436.307000", "151438.307000", "151440.308000", "151442.308000", "151444.307000", "151446.307000", "151448.307000", "151450.307000", "151452.307000", "151454.307000", "151456.307000", "151458.308000", "151500.308000", "151502.307000", "151504.307000", "151506.307000", "151508.307000", "151510.307000", "151512.307000", "151514.308000", "151516.308000", "151518.307000", "151520.307000", "151522.307000", "151524.307000", "151526.307000", "151528.307000", "151530.307000", "151532.042000"],
      "InstanceNumber": [1, 2, 3, 4, 5, 6, 7, 8, 9, 10, 11, 12, 13, 14, 15, 16, 17, 18, 19, 20, 21, 22, 23, 24, 25, 26, 27, 28, 29, 30, 31, 32, 33, 34, 35, 36, 37, 38, 39, 40, 41, 42, 43, 44, 45, 46, 47, 48, 49, 50, 51, 52, 53, 54, 55, 56, 57, 58, 59, 60, 61, 62, 63, 64, 65, 66, 67, 68, 69, 70, 71, 72, 73, 74, 75, 76, 77, 78, 79, 80, 81, 82, 83, 84, 85, 86, 87, 88, 89, 90, 91, 92, 93, 94, 95, 96, 97, 98, 99, 100, 101, 102, 103, 104, 105, 106, 107, 108, 109, 110, 111, 112, 113, 114, 115, 116, 117, 118, 119, 120, 121, 122, 123, 124, 125, 126, 127, 128, 129, 130, 131, 132, 133, 134, 135, 136, 137, 138, 139, 140, 141, 142, 143, 144, 145, 146, 147, 148, 149, 150, 151, 152, 153, 154, 155, 156, 157, 158, 159, 160, 161, 162, 163, 164, 165, 166, 167, 168, 169, 170, 171, 172, 173, 174, 175, 176, 177, 178, 179, 180, 181, 182, 183, 184, 185, 186, 187, 188, 189, 190, 191, 192, 193, 194, 195, 196, 197, 198, 199, 200, 201, 202, 203, 204, 205, 206, 207, 208, 209, 210, 211, 212, 213, 214, 215, 216, 217, 218, 219, 220, 221, 222, 223, 224, 225, 226, 227, 228, 229, 230, 231, 232, 233, 234, 235, 236, 237, 238, 239, 240, 241, 242, 243, 244, 245, 246, 247, 248, 249, 250, 251, 252, 253, 254, 255, 256, 257, 258, 259, 260, 261, 262, 263, 264, 265, 266, 267, 268, 269, 270, 271, 272, 273, 274, 275],
      "LargestImagePixelValue": [1692, 1642, 1391, 1458, 1494, 1405, 1518, 1415, 1533, 1550, 1502, 1483, 1569, 1470, 1505, 1600, 1522, 1584, 1529, 1470, 1566, 1540, 1399, 1547, 1472, 1540, 1670, 1732, 1663, 1561, 1568, 1516, 1620, 1377, 1385, 1694, 1613, 1490, 1493, 1526, 1498, 1573, 1675, 1711, 1664, 1589, 1544, 1489, 1482, 1533, 1533, 1552, 1472, 1447, 1433, 1548, 1437, 1457, 1463, 1575, 1634, 1598, 1556, 1455, 1493, 1430, 1589, 1465, 1532, 1575, 1488, 1548, 1684, 1618, 1558, 1573, 1647, 1662, 1620, 1637, 1680, 1645, 1677, 1643, 1606, 1678, 1650, 1590, 1697, 1664, 1479, 1329, 1582, 1467, 1498, 1493, 1603, 1577, 1604, 1565, 1641, 1609, 1561, 1638, 1616, 1598, 1685, 1603, 1458, 1445, 1485, 1517, 1502, 1520, 1600, 1551, 1670, 1597, 1554, 1594, 1416, 1484, 1477, 1481, 1476, 1537, 1526, 1519, 1517, 1534, 1587, 1533, 1524, 1567, 1500, 1551, 1541, 1599, 1620, 1509, 1447, 1429, 1438, 1547, 1519, 1418, 1493, 1595, 1552, 1574, 1571, 1523, 1571, 1539, 1645, 1598, 1572, 1627, 1627, 1549, 1459, 1451, 1493, 1403, 1500, 1501, 1500, 1410, 1515, 1528, 1492, 1554, 1581, 1532, 1465, 1485, 1499, 1553, 1549, 1607, 1603, 1545, 1602, 1425, 1421, 1445, 1474, 1490, 1469, 1553, 1458, 1476, 1504, 1535, 1475, 1512, 1492, 1570, 1636, 1557, 1550, 1607, 1594, 1545, 1633, 1539, 1377, 1445, 1507, 1435, 1516, 1487, 1459, 1521, 1457, 1352, 1522, 1539, 1557, 1564, 1477, 1519, 1461, 1499, 1526, 1589, 1566, 1621, 1602, 1461, 1416, 1454, 1475, 1354, 1464, 1525, 1502, 1590, 1495, 1533, 1570, 1533, 1631, 1602, 1570, 1645, 1604, 1390, 1345, 1479, 1433, 1514, 1519, 1580, 1562, 1549, 1544, 1516, 1425, 1405, 1423, 1400, 1466, 1426, 1482, 1453, 1487, 1406, 1390, 1454, 1500, 1560, 1547, 1504, 1601],
      "WindowCenter": [633.0, 631.0, 630.0, 630.0, 630.0, 629.0, 631.0, 630.0, 631.0, 631.0, 630.0, 629.0, 630.0, 631.0, 632.0, 633.0, 632.0, 631.0, 631.0, 632.0, 632.0, 631.0, 631.0, 632.0, 632.0, 632.0, 631.0, 631.0, 631.0, 631.0, 631.0, 630.0, 631.0, 630.0, 631.0, 634.0, 633.0, 632.0, 632.0, 632.0, 632.0, 632.0, 632.0, 632.0, 632.0, 632.0, 632.0, 631.0, 631.0, 631.0, 631.0, 631.0, 630.0, 630.0, 630.0, 631.0, 631.0, 631.0, 631.0, 632.0, 632.0, 632.0, 631.0, 631.0, 631.0, 630.0, 631.0, 631.0, 631.0, 632.0, 631.0, 631.0, 631.0, 631.0, 631.0, 631.0, 631.0, 630.0, 631.0, 631.0, 632.0, 632.0, 632.0, 632.0, 632.0, 632.0, 631.0, 631.0, 632.0, 632.0, 632.0, 632.0, 632.0, 630.0, 629.0, 630.0, 630.0, 630.0, 630.0, 631.0, 632.0, 631.0, 631.0, 631.0, 631.0, 631.0, 631.0, 630.0, 630.0, 630.0, 631.0, 631.0, 631.0, 631.0, 631.0, 630.0, 631.0, 630.0, 630.0, 630.0, 629.0, 630.0, 630.0, 631.0, 631.0, 631.0, 631.0, 631.0, 631.0, 631.0, 630.0, 631.0, 631.0, 631.0, 631.0, 631.0, 630.0, 630.0, 630.0, 630.0, 629.0, 629.0, 629.0, 630.0, 630.0, 630.0, 631.0, 631.0, 631.0, 631.0, 631.0, 630.0, 630.0, 630.0, 631.0, 631.0, 632.0, 631.0, 631.0, 630.0, 630.0, 630.0, 630.0, 629.0, 630.0, 630.0, 630.0, 630.0, 631.0, 631.0, 631.0, 631.0, 631.0, 631.0, 630.0, 630.0, 630.0, 631.0, 631.0, 631.0, 631.0, 631.0, 630.0, 630.0, 629.0, 630.0, 630.0, 631.0, 631.0, 631.0, 631.0, 631.0, 631.0, 631.0, 630.0, 630.0, 630.0, 631.0, 631.0, 631.0, 631.0, 631.0, 630.0, 630.0, 630.0, 630.0, 628.0, 629.0, 629.0, 630.0, 630.0, 631.0, 630.0, 631.0, 630.0, 630.0, 631.0, 631.0, 630.0, 630.0, 631.0, 632.0, 631.0, 631.0, 630.0, 630.0, 630.0, 629.0, 629.0, 629.0, 629.0, 630.0, 630.0, 629.0, 630.0, 630.0, 630.0, 630.0, 630.0, 630.0, 630.0, 630.0, 631.0, 631.0, 631.0, 631.0, 631.0, 629.0, 629.0, 630.0, 630.0, 631.0, 631.0, 631.0, 630.0, 630.0, 631.0, 631.0, 630.0, 630.0, 630.0, 630.0, 630.0, 630.0, 631.0, 631.0, 631.0, 630.0, 629.0, 629.0, 629.0, 629.0, 630.0, 630.0, 630.0],
      "WindowWidth": [1350.0, 1344.0, 1343.0, 1344.0, 1343.0, 1341.0, 1344.0, 1344.0, 1345.0, 1344.0, 1342.0, 1341.0, 1342.0, 1344.0, 1347.0, 1349.0, 1346.0, 1345.0, 1346.0, 1346.0, 1346.0, 1345.0, 1345.0, 1347.0, 1347.0, 1346.0, 1345.0, 1346.0, 1345.0, 1345.0, 1345.0, 1344.0, 1344.0, 1343.0, 1344.0, 1351.0, 1349.0, 1347.0, 1347.0, 1347.0, 1346.0, 1346.0, 1346.0, 1346.0, 1348.0, 1347.0, 1346.0, 1345.0, 1345.0, 1344.0, 1344.0, 1344.0, 1342.0, 1342.0, 1342.0, 1344.0, 1345.0, 1346.0, 1346.0, 1347.0, 1347.0, 1346.0, 1346.0, 1344.0, 1344.0, 1343.0, 1345.0, 1344.0, 1346.0, 1346.0, 1345.0, 1344.0, 1345.0, 1344.0, 1344.0, 1344.0, 1344.0, 1343.0, 1344.0, 1345.0, 1347.0, 1347.0, 1347.0, 1346.0, 1347.0, 1347.0, 1344.0, 1344.0, 1347.0, 1348.0, 1346.0, 1347.0, 1347.0, 1342.0, 1341.0, 1341.0, 1342.0, 1343.0, 1342.0, 1343.0, 1346.0, 1346.0, 1345.0, 1345.0, 1344.0, 1344.0, 1345.0, 1343.0, 1342.0, 1342.0, 1344.0, 1345.0, 1345.0, 1345.0, 1344.0, 1343.0, 1343.0, 1342.0, 1342.0, 1342.0, 1341.0, 1342.0, 1343.0, 1344.0, 1344.0, 1346.0, 1345.0, 1345.0, 1345.0, 1344.0, 1343.0, 1344.0, 1344.0, 1346.0, 1346.0, 1344.0, 1343.0, 1342.0, 1342.0, 1341.0, 1340.0, 1339.0, 1341.0, 1343.0, 1343.0, 1342.0, 1344.0, 1345.0, 1345.0, 1344.0, 1344.0, 1342.0, 1342.0, 1343.0, 1345.0, 1345.0, 1346.0, 1345.0, 1344.0, 1342.0, 1341.0, 1342.0, 1343.0, 1341.0, 1342.0, 1342.0, 1343.0, 1342.0, 1344.0, 1344.0, 1344.0, 1344.0, 1345.0, 1344.0, 1343.0, 1343.0, 1343.0, 1343.0, 1344.0, 1344.0, 1344.0, 1344.0, 1343.0, 1341.0, 1341.0, 1342.0, 1342.0, 1344.0, 1344.0, 1346.0, 1345.0, 1344.0, 1344.0, 1344.0, 1343.0, 1343.0, 1343.0, 1344.0, 1344.0, 1344.0, 1345.0, 1344.0, 1343.0, 1342.0, 1342.0, 1341.0, 1339.0, 1339.0, 1341.0, 1342.0, 1343.0, 1344.0, 1343.0, 1344.0, 1343.0, 1343.0, 1345.0, 1344.0, 1343.0, 1343.0, 1344.0, 1347.0, 1346.0, 1344.0, 1343.0, 1342.0, 1341.0, 1341.0, 1340.0, 1340.0, 1339.0, 1341.0, 1341.0, 1340.0, 1342.0, 1343.0, 1343.0, 1343.0, 1343.0, 1342.0, 1341.0, 1342.0, 1344.0, 1345.0, 1345.0, 1345.0, 1343.0, 1340.0, 1339.0, 1342.0, 1342.0, 1344.0, 1344.0, 1344.0, 1342.0, 1343.0, 1344.0, 1344.0, 1343.0, 1343.0, 1343.0, 1342.0, 1342.0, 1341.0, 1344.0, 1344.0, 1344.0, 1341.0, 1340.0, 1340.0, 1340.0, 1340.0, 1341.0, 1342.0, 1342.0]
    },
    "slices": {}
  }
}