{
  "AcquisitionMatrixPE": 64,
  "AcquisitionNumber": 1,
  "AcquisitionTime": "17:38:13.925000",
  "BandwidthPerPixelPhaseEncode": 31.888,
  "BaseResolution": 64,
  "BodyPartExamined": "HEAD",
  "CoilCombinationMethod": "Sum of Squares",
  "ConsistencyInfo": "N4_VE11C_LATEST_20160120",
  "ConversionSoftware": "dcm2niix",
  "ConversionSoftwareVersion": "v1.0.20211006",
  "DerivedVendorReportedEchoSpacing": 0.000489996,
  "DeviceSerialNumber": "167048",
  "EchoTime": 0.03,
  "EchoTrainLength": 64,
  "EffectiveEchoSpacing": 0.000489996,
  "FlipAngle": 90,
  "ImageOrientationPatientDICOM": [0.987875, 0.13811, -0.0709079, -0.145877, 0.982054, -0.119543],
  "ImageType": [
    "ORIGINAL",
    "PRIMARY",
    "M",
    "ND",
    "NORM",
    "MOSAIC"
],
  "ImagingFrequency": 123.261,
  "InPlanePhaseEncodingDirectionDICOM": "COL",
  "InstitutionAddress": "Azinhaga Santa Comba StreetNo,Coimbra,District,PT,3000",
  "InstitutionName": "ICNAS",
  "MRAcquisitionType": "2D",
  "MagneticFieldStrength": 3,
  "Manufacturer": "Siemens",
  "ManufacturersModelName": "Prisma_fit",
  "MatrixCoilMode": "SENSE",
  "Modality": "MR",
  "PartialFourier": 1,
  "PatientPosition": "HFS",
  "PercentPhaseFOV": 100,
  "PercentSampling": 100,
  "PhaseEncodingDirection": "j-",
  "PhaseEncodingSteps": 64,
  "PhaseResolution": 1,
  "PixelBandwidth": 2365,
  "ProcedureStepDescription": "RM_FUNCIONAL",
  "ProtocolName": "rtfmri_neurofeedback_MTRun3",
  "PulseSequenceDetails": "%SiemensSeq%\\ep2d_bold",
  "ReceiveCoilActiveElements": "HE1-4",
  "ReceiveCoilName": "HeadNeck_20",
  "ReconMatrixPE": 64,
  "RepetitionTime": 2,
  "SAR": 0.0953909,
  "ScanOptions": "FS",
  "ScanningSequence": "EP",
  "SequenceName": "*epfid2d1_64",
  "SequenceVariant": "SK",
  "SeriesDescription": "rtfmri_neurofeedback_MTRun3",
  "SeriesNumber": 6,
  "ShimSetting": [10163, 2079, 8384, 591, 109, -91, 167, -70],
  "SliceThickness": 3,
  "SliceTiming": [0, 1.02, 0.06, 1.08, 0.12, 1.14, 0.18, 1.2, 0.24, 1.26, 0.3, 1.32, 0.36, 1.38, 0.42, 1.44, 0.48, 1.5, 0.54, 1.56, 0.6, 1.62, 0.66, 1.68, 0.72, 1.74, 0.78, 1.8, 0.84, 1.86, 0.9, 1.92, 0.96],
  "SoftwareVersions": "syngo MR E11",
  "SpacingBetweenSlices": 3,
  "StationName": "MRC35377",
  "TaskName": "nf",
  "TotalReadoutTime": 0.0308698,
  "TxRefAmp": 240.119,
  "dcmmeta_affine": [
    [-3.9514999389648438, -0.5835080146789551, -0.15937590599060059, 144.79827880859375],
    [-0.5524399876594543, 3.928215980529785, -0.38531211018562317, -79.55757141113281],
    [-0.2836315929889679, 0.4781720042228699, 2.9708809852600098, -46.34041213989258],
    [0.0, 0.0, 0.0, 1.0]
],
  "dcmmeta_reorient_transform": [
    [0.0, -1.0, 0.0, 63.0],
    [1.0, 0.0, 0.0, 0.0],
    [0.0, 0.0, 1.0, 0.0],
    [0.0, 0.0, 0.0, 1.0]
],
  "dcmmeta_shape": [64, 64, 33, 275],
  "dcmmeta_slice_dim": 2,
  "dcmmeta_version": 0.6,
  "global": {
    "const": {
      "AccessionNumber": "0",
      "AcquisitionMatrix": [64, 0, 0, 64],
      "AngioFlag": "N",
      "BitsAllocated": 16,
      "BitsStored": 12,
      "BodyPartExamined": "HEAD",
      "Columns": 384,
      "EchoNumbers": 1,
      "EchoTime": 30.0,
      "EchoTrainLength": 64,
      "FlipAngle": 90.0,
      "HighBit": 11,
      "ImageOrientationPatient": [0.987875, 0.13811, -0.0709079, -0.145877, 0.982054, -0.119543],
      "ImagePositionPatient": [-646.916, -884.825, 105.673],
      "ImageType": [
        "ORIGINAL",
        "PRIMARY",
        "M",
        "ND",
        "NORM",
        "MOSAIC"
],
      "ImagedNucleus": "1H",
      "ImagingFrequency": 123.261,
      "InPlanePhaseEncodingDirection": "COL",
      "MRAcquisitionType": "2D",
      "MagneticFieldStrength": 3.0,
      "Manufacturer": "SIEMENS",
      "ManufacturerModelName": "Prisma_fit",
      "Modality": "MR",
      "NumberOfAverages": 1.0,
      "NumberOfFrames": 1,
      "NumberOfPhaseEncodingSteps": 64,
      "PercentPhaseFieldOfView": 100.0,
      "PercentSampling": 100.0,
      "PerformedProcedureStepStartTime": "163059.172000",
      "PhotometricInterpretation": "MONOCHROME2",
      "PixelBandwidth": 2365.0,
      "PixelRepresentation": 0,
      "PixelSpacing": [4.0, 4.0],
      "ProtocolName": "rtfmri_neurofeedback_MTRun3",
      "RepetitionTime": 2000.0,
      "RequestAttributesSequence": [
        {
          "RequestedProcedureID": "997",
          "ScheduledProcedureStepDescription": "RM_FUNCIONAL",
          "ScheduledProcedureStepID": "1"}
],
      "Rows": 384,
      "SAR": 0.0953909,
      "SamplesPerPixel": 1,
      "ScanOptions": "FS",
      "ScanningSequence": "EP",
      "SequenceName": "*epfid2d1_64",
      "SequenceVariant": "SK",
      "SeriesDescription": "rtfmri_neurofeedback_MTRun3",
      "SeriesNumber": 6,
      "SeriesTime": "173816.656000",
      "SliceLocation": -43.3644,
      "SliceThickness": 3.0,
      "SmallestImagePixelValue": 0,
      "SoftwareVersions": "syngo MR E11",
      "SpacingBetweenSlices": 3.0,
      "SpecificCharacterSet": "ISO_IR 100",
      "StudyID": "997",
      "StudyTime": "163057.539000",
      "TransmitCoilName": "Body",
      "VariableFlipAngleFlag": "N",
      "WindowCenterWidthExplanation": "Algo1",
      "dBdt": 0.0},
    "slices": {}
  },
  "time": {
    "samples": {
      "AcquisitionNumber": [1, 2, 3, 4, 5, 6, 7, 8, 9, 10, 11, 12, 13, 14, 15, 16, 17, 18, 19, 20, 21, 22, 23, 24, 25, 26, 27, 28, 29, 30, 31, 32, 33, 34, 35, 36, 37, 38, 39, 40, 41, 42, 43, 44, 45, 46, 47, 48, 49, 50, 51, 52, 53, 54, 55, 56, 57, 58, 59, 60, 61, 62, 63, 64, 65, 66, 67, 68, 69, 70, 71, 72, 73, 74, 75, 76, 77, 78, 79, 80, 81, 82, 83, 84, 85, 86, 87, 88, 89, 90, 91, 92, 93, 94, 95, 96, 97, 98, 99, 100, 101, 102, 103, 104, 105, 106, 107, 108, 109, 110, 111, 112, 113, 114, 115, 116, 117, 118, 119, 120, 121, 122, 123, 124, 125, 126, 127, 128, 129, 130, 131, 132, 133, 134, 135, 136, 137, 138, 139, 140, 141, 142, 143, 144, 145, 146, 147, 148, 149, 150, 151, 152, 153, 154, 155, 156, 157, 158, 159, 160, 161, 162, 163, 164, 165, 166, 167, 168, 169, 170, 171, 172, 173, 174, 175, 176, 177, 178, 179, 180, 181, 182, 183, 184, 185, 186, 187, 188, 189, 190, 191, 192, 193, 194, 195, 196, 197, 198, 199, 200, 201, 202, 203, 204, 205, 206, 207, 208, 209, 210, 211, 212, 213, 214, 215, 216, 217, 218, 219, 220, 221, 222, 223, 224, 225, 226, 227, 228, 229, 230, 231, 232, 233, 234, 235, 236, 237, 238, 239, 240, 241, 242, 243, 244, 245, 246, 247, 248, 249, 250, 251, 252, 253, 254, 255, 256, 257, 258, 259, 260, 261, 262, 263, 264, 265, 266, 267, 268, 269, 270, 271, 272, 273, 274, 275],
      "AcquisitionTime": ["173813.925000", "173815.925000", "173817.925000", "173819.925000", "173821.925000", "173823.925000", "173825.925000", "173827.925000", "173829.925000", "173831.925000", "173833.925000", "173835.925000", "173837.925000", "173839.925000", "173841.925000", "173843.925000", "173845.925000", "173847.925000", "173849.925000", "173851.925000", "173853.925000", "173855.925000", "173857.925000", "173859.925000", "173901.925000", "173903.925000", "173905.925000", "173907.925000", "173909.925000", "173911.925000", "173913.925000", "173915.925000", "173917.925000", "173919.925000", "173921.925000", "173923.925000", "173925.925000", "173927.925000", "173929.925000", "173931.925000", "173933.925000", "173935.925000", "173937.925000", "173939.925000", "173941.925000", "173943.925000", "173945.925000", "173947.925000", "173949.925000", "173951.925000", "173953.925000", "173955.925000", "173957.925000", "173959.925000", "174001.925000", "174003.925000", "174005.925000", "174007.925000", "174009.925000", "174011.925000", "174013.925000", "174015.925000", "174017.925000", "174019.925000", "174021.925000", "174023.925000", "174025.925000", "174027.925000", "174029.925000", "174031.925000", "174033.925000", "174035.925000", "174037.925000", "174039.925000", "174041.925000", "174043.925000", "174045.925000", "174047.925000", "174049.925000", "174051.925000", "174053.925000", "174055.925000", "174057.925000", "174059.925000", "174101.925000", "174103.925000", "174105.925000", "174107.925000", "174109.925000", "174111.925000", "174113.925000", "174115.925000", "174117.925000", "174119.925000", "174121.925000", "174123.925000", "174125.925000", "174127.925000", "174129.925000", "174131.925000", "174133.925000", "174135.925000", "174137.925000", "174139.925000", "174141.925000", "174143.925000", "174145.925000", "174147.925000", "174149.925000", "174151.925000", "174153.925000", "174155.925000", "174157.925000", "174159.925000", "174201.925000", "174203.925000", "174205.925000", "174207.925000", "174209.925000", "174211.925000", "174213.925000", "174215.925000", "174217.925000", "174219.925000", "174221.925000", "174223.925000", "174225.925000", "174227.925000", "174229.925000", "174231.925000", "174233.925000", "174235.925000", "174237.925000", "174239.925000", "174241.925000", "174243.925000", "174245.925000", "174247.925000", "174249.925000", "174251.925000", "174253.925000", "174255.925000", "174257.925000", "174259.925000", "174301.925000", "174303.925000", "174305.925000", "174307.925000", "174309.925000", "174311.925000", "174313.925000", "174315.925000", "174317.925000", "174319.925000", "174321.925000", "174323.925000", "174325.925000", "174327.925000", "174329.925000", "174331.925000", "174333.925000", "174335.925000", "174337.925000", "174339.925000", "174341.925000", "174343.925000", "174345.925000", "174347.925000", "174349.925000", "174351.925000", "174353.925000", "174355.925000", "174357.925000", "174359.925000", "174401.925000", "174403.925000", "174405.925000", "174407.925000", "174409.925000", "174411.925000", "174413.925000", "174415.925000", "174417.925000", "174419.925000", "174421.925000", "174423.925000", "174425.925000", "174427.925000", "174429.925000", "174431.925000", "174433.925000", "174435.925000", "174437.925000", "174439.925000", "174441.925000", "174443.925000", "174445.925000", "174447.925000", "174449.925000", "174451.925000", "174453.925000", "174455.925000", "174457.925000", "174459.925000", "174501.925000", "174503.925000", "174505.925000", "174507.925000", "174509.925000", "174511.925000", "174513.925000", "174515.925000", "174517.925000", "174519.925000", "174521.925000", "174523.925000", "174525.925000", "174527.925000", "174529.925000", "174531.925000", "174533.925000", "174535.925000", "174537.925000", "174539.925000", "174541.925000", "174543.925000", "174545.925000", "174547.925000", "174549.925000", "174551.925000", "174553.925000", "174555.925000", "174557.925000", "174559.925000", "174601.925000", "174603.925000", "174605.925000", "174607.925000", "174609.925000", "174611.925000", "174613.925000", "174615.925000", "174617.925000", "174619.925000", "174621.925000", "174623.925000", "174625.925000", "174627.925000", "174629.925000", "174631.925000", "174633.925000", "174635.925000", "174637.925000", "174639.925000", "174641.925000", "174643.925000", "174645.925000", "174647.925000", "174649.925000", "174651.925000", "174653.925000", "174655.925000", "174657.925000", "174659.925000", "174701.925000", "174703.925000", "174705.925000", "174707.925000", "174709.925000", "174711.925000", "174713.925000", "174715.925000", "174717.925000", "174719.925000", "174721.925000"],
      "ContentTime": ["173816.659000", "173818.654000", "173820.654000", "173822.654000", "173824.654000", "173826.653000", "173828.654000", "173830.654000", "173832.654000", "173834.654000", "173836.654000", "173838.654000", "173840.654000", "173842.654000", "173844.653000", "173846.654000", "173848.654000", "173850.654000", "173852.654000", "173854.654000", "173856.654000", "173858.654000", "173900.654000", "173902.654000", "173904.654000", "173906.654000", "173908.654000", "173910.654000", "173912.654000", "173914.654000", "173916.654000", "173918.653000", "173920.654000", "173922.654000", "173924.654000", "173926.654000", "173928.654000", "173930.654000", "173932.654000", "173934.654000", "173936.653000", "173938.654000", "173940.654000", "173942.654000", "173944.654000", "173946.654000", "173948.654000", "173950.654000", "173952.654000", "173954.653000", "173956.654000", "173958.654000", "174000.654000", "174002.654000", "174004.654000", "174006.654000", "174008.654000", "174010.654000", "174012.654000", "174014.654000", "174016.654000", "174018.654000", "174020.654000", "174022.654000", "174024.654000", "174026.654000", "174028.653000", "174030.654000", "174032.654000", "174034.654000", "174036.654000", "174038.654000", "174040.654000", "174042.654000", "174044.654000", "174046.653000", "174048.654000", "174050.654000", "174052.654000", "174054.654000", "174056.654000", "174058.654000", "174100.654000", "174102.654000", "174104.653000", "174106.654000", "174108.654000", "174110.654000", "174112.654000", "174114.654000", "174116.654000", "174118.654000", "174120.654000", "174122.654000", "174124.654000", "174126.654000", "174128.654000", "174130.654000", "174132.654000", "174134.654000", "174136.654000", "174138.653000", "174140.654000", "174142.654000", "174144.654000", "174146.655000", "174148.656000", "174150.656000", "174152.655000", "174154.654000", "174156.653000", "174158.654000", "174200.654000", "174202.654000", "174204.654000", "174206.654000", "174208.654000", "174210.654000", "174212.654000", "174214.653000", "174216.654000", "174218.654000", "174220.654000", "174222.654000", "174224.654000", "174226.654000", "174228.654000", "174230.654000", "174232.654000", "174234.654000", "174236.654000", "174238.654000", "174240.663000", "174242.654000", "174244.654000", "174246.654000", "174248.653000", "174250.654000", "174252.654000", "174254.654000", "174256.654000", "174258.654000", "174300.654000", "174302.654000", "174304.654000", "174306.653000", "174308.654000", "174310.654000", "174312.654000", "174314.654000", "174316.654000", "174318.654000", "174320.654000", "174322.654000", "174324.653000", "174326.654000", "174328.654000", "174330.654000", "174332.654000", "174334.654000", "174336.654000", "174338.654000", "174340.654000", "174342.654000", "174344.654000", "174346.654000", "174348.654000", "174350.654000", "174352.654000", "174354.654000", "174356.654000", "174358.653000", "174400.654000", "174402.654000", "174404.654000", "174406.654000", "174408.654000", "174410.654000", "174412.654000", "174414.654000", "174416.653000", "174418.654000", "174420.654000", "174422.654000", "174424.654000", "174426.654000", "174428.654000", "174430.654000", "174432.654000", "174434.653000", "174436.654000", "174438.654000", "174440.654000", "174442.654000", "174444.654000", "174446.654000", "174448.654000", "174450.654000", "174452.654000", "174454.654000", "174456.654000", "174458.654000", "174500.654000", "174502.654000", "174504.654000", "174506.654000", "174508.653000", "174510.654000", "174512.654000", "174514.654000", "174516.654000", "174518.654000", "174520.654000", "174522.654000", "174524.654000", "174526.653000", "174528.654000", "174530.654000", "174532.654000", "174534.654000", "174536.654000", "174538.654000", "174540.654000", "174542.654000", "174544.653000", "174546.654000", "174548.654000", "174550.654000", "174552.654000", "174554.654000", "174556.654000", "174558.654000", "174600.654000", "174602.654000", "174604.654000", "174606.654000", "174608.654000", "174610.654000", "174612.654000", "174614.654000", "174616.654000", "174618.653000", "174620.654000", "174622.654000", "174624.654000", "174626.654000", "174628.654000", "174630.654000", "174632.654000", "174634.654000", "174636.653000", "174638.654000", "174640.654000", "174642.654000", "174644.654000", "174646.654000", "174648.654000", "174650.654000", "174652.654000", "174654.653000", "174656.654000", "174658.654000", "174700.654000", "174702.654000", "174704.654000", "174706.654000", "174708.654000", "174710.653000", "174712.654000", "174714.654000", "174716.654000", "174718.654000", "174720.654000", "174722.654000", "174724.384000"],
      "InstanceCreationTime": ["173816.659000", "173818.654000", "173820.654000", "173822.654000", "173824.654000", "173826.653000", "173828.654000", "173830.654000", "173832.654000", "173834.654000", "173836.654000", "173838.654000", "173840.654000", "173842.654000", "173844.653000", "173846.654000", "173848.654000", "173850.654000", "173852.654000", "173854.654000", "173856.654000", "173858.654000", "173900.654000", "173902.654000", "173904.654000", "173906.654000", "173908.654000", "173910.654000", "173912.654000", "173914.654000", "173916.654000", "173918.653000", "173920.654000", "173922.654000", "173924.654000", "173926.654000", "173928.654000", "173930.654000", "173932.654000", "173934.654000", "173936.653000", "173938.654000", "173940.654000", "173942.654000", "173944.654000", "173946.654000", "173948.654000", "173950.654000", "173952.654000", "173954.653000", "173956.654000", "173958.654000", "174000.654000", "174002.654000", "174004.654000", "174006.654000", "174008.654000", "174010.654000", "174012.654000", "174014.654000", "174016.654000", "174018.654000", "174020.654000", "174022.654000", "174024.654000", "174026.654000", "174028.653000", "174030.654000", "174032.654000", "174034.654000", "174036.654000", "174038.654000", "174040.654000", "174042.654000", "174044.654000", "174046.653000", "174048.654000", "174050.654000", "174052.654000", "174054.654000", "174056.654000", "174058.654000", "174100.654000", "174102.654000", "174104.653000", "174106.654000", "174108.654000", "174110.654000", "174112.654000", "174114.654000", "174116.654000", "174118.654000", "174120.654000", "174122.654000", "174124.654000", "174126.654000", "174128.654000", "174130.654000", "174132.654000", "174134.654000", "174136.654000", "174138.653000", "174140.654000", "174142.654000", "174144.654000", "174146.655000", "174148.656000", "174150.656000", "174152.655000", "174154.654000", "174156.653000", "174158.654000", "174200.654000", "174202.654000", "174204.654000", "174206.654000", "174208.654000", "174210.654000", "174212.654000", "174214.653000", "174216.654000", "174218.654000", "174220.654000", "174222.654000", "174224.654000", "174226.654000", "174228.654000", "174230.654000", "174232.654000", "174234.654000", "174236.654000", "174238.654000", "174240.663000", "174242.654000", "174244.654000", "174246.654000", "174248.653000", "174250.654000", "174252.654000", "174254.654000", "174256.654000", "174258.654000", "174300.654000", "174302.654000", "174304.654000", "174306.653000", "174308.654000", "174310.654000", "174312.654000", "174314.654000", "174316.654000", "174318.654000", "174320.654000", "174322.654000", "174324.653000", "174326.654000", "174328.654000", "174330.654000", "174332.654000", "174334.654000", "174336.654000", "174338.654000", "174340.654000", "174342.654000", "174344.654000", "174346.654000", "174348.654000", "174350.654000", "174352.654000", "174354.654000", "174356.654000", "174358.653000", "174400.654000", "174402.654000", "174404.654000", "174406.654000", "174408.654000", "174410.654000", "174412.654000", "174414.654000", "174416.653000", "174418.654000", "174420.654000", "174422.654000", "174424.654000", "174426.654000", "174428.654000", "174430.654000", "174432.654000", "174434.653000", "174436.654000", "174438.654000", "174440.654000", "174442.654000", "174444.654000", "174446.654000", "174448.654000", "174450.654000", "174452.654000", "174454.654000", "174456.654000", "174458.654000", "174500.654000", "174502.654000", "174504.654000", "174506.654000", "174508.653000", "174510.654000", "174512.654000", "174514.654000", "174516.654000", "174518.654000", "174520.654000", "174522.654000", "174524.654000", "174526.653000", "174528.654000", "174530.654000", "174532.654000", "174534.654000", "174536.654000", "174538.654000", "174540.654000", "174542.654000", "174544.653000", "174546.654000", "174548.654000", "174550.654000", "174552.654000", "174554.654000", "174556.654000", "174558.654000", "174600.654000", "174602.654000", "174604.654000", "174606.654000", "174608.654000", "174610.654000", "174612.654000", "174614.654000", "174616.654000", "174618.653000", "174620.654000", "174622.654000", "174624.654000", "174626.654000", "174628.654000", "174630.654000", "174632.654000", "174634.654000", "174636.653000", "174638.654000", "174640.654000", "174642.654000", "174644.654000", "174646.654000", "174648.654000", "174650.654000", "174652.654000", "174654.653000", "174656.654000", "174658.654000", "174700.654000", "174702.654000", "174704.654000", "174706.654000", "174708.654000", "174710.653000", "174712.654000", "174714.654000", "174716.654000", "174718.654000", "174720.654000", "174722.654000", "174724.384000"],
      "InstanceNumber": [1, 2, 3, 4, 5, 6, 7, 8, 9, 10, 11, 12, 13, 14, 15, 16, 17, 18, 19, 20, 21, 22, 23, 24, 25, 26, 27, 28, 29, 30, 31, 32, 33, 34, 35, 36, 37, 38, 39, 40, 41, 42, 43, 44, 45, 46, 47, 48, 49, 50, 51, 52, 53, 54, 55, 56, 57, 58, 59, 60, 61, 62, 63, 64, 65, 66, 67, 68, 69, 70, 71, 72, 73, 74, 75, 76, 77, 78, 79, 80, 81, 82, 83, 84, 85, 86, 87, 88, 89, 90, 91, 92, 93, 94, 95, 96, 97, 98, 99, 100, 101, 102, 103, 104, 105, 106, 107, 108, 109, 110, 111, 112, 113, 114, 115, 116, 117, 118, 119, 120, 121, 122, 123, 124, 125, 126, 127, 128, 129, 130, 131, 132, 133, 134, 135, 136, 137, 138, 139, 140, 141, 142, 143, 144, 145, 146, 147, 148, 149, 150, 151, 152, 153, 154, 155, 156, 157, 158, 159, 160, 161, 162, 163, 164, 165, 166, 167, 168, 169, 170, 171, 172, 173, 174, 175, 176, 177, 178, 179, 180, 181, 182, 183, 184, 185, 186, 187, 188, 189, 190, 191, 192, 193, 194, 195, 196, 197, 198, 199, 200, 201, 202, 203, 204, 205, 206, 207, 208, 209, 210, 211, 212, 213, 214, 215, 216, 217, 218, 219, 220, 221, 222, 223, 224, 225, 226, 227, 228, 229, 230, 231, 232, 233, 234, 235, 236, 237, 238, 239, 240, 241, 242, 243, 244, 245, 246, 247, 248, 249, 250, 251, 252, 253, 254, 255, 256, 257, 258, 259, 260, 261, 262, 263, 264, 265, 266, 267, 268, 269, 270, 271, 272, 273, 274, 275],
      "LargestImagePixelValue": [1786, 1673, 1618, 1662, 1779, 1633, 1809, 1822, 1641, 1739, 1703, 1595, 1630, 1632, 1638, 1694, 1731, 1669, 1587, 1655, 1719, 1597, 1603, 1617, 1586, 1613, 1748, 1759, 1593, 1652, 1623, 1888, 1716, 1703, 1704, 1637, 1668, 1692, 1713, 1718, 1699, 1710, 1714, 1719, 1702, 1699, 1705, 1742, 2041, 1850, 1701, 1723, 1714, 1712, 1712, 1757, 1818, 1774, 1747, 1773, 1663, 1745, 2002, 1802, 1802, 1753, 1724, 1696, 1570, 1631, 1841, 1793, 1680, 1687, 1731, 1730, 1765, 1675, 1655, 1616, 1698, 1756, 1721, 1688, 1747, 1837, 1794, 1612, 1643, 1823, 1790, 1682, 1714, 1719, 1803, 1675, 1649, 1763, 1794, 1646, 1655, 1957, 1720, 1715, 1789, 1719, 1735, 1747, 1727, 1784, 1779, 1633, 1722, 1715, 1707, 1933, 1772, 1832, 1738, 1757, 1722, 1654, 1643, 1689, 1765, 1681, 1751, 1765, 1769, 1768, 1716, 1761, 1701, 1716, 1727, 1724, 1824, 1752, 1751, 1730, 1771, 1739, 1814, 1659, 1664, 1739, 1821, 1757, 1681, 1602, 1644, 1774, 1755, 1723, 1587, 1756, 1679, 1771, 1609, 1610, 1570, 1592, 1693, 1626, 1695, 1609, 1568, 1672, 1729, 1876, 1708, 1738, 1677, 1689, 1645, 1671, 1677, 1740, 1672, 1636, 1662, 1668, 1984, 1708, 1725, 1784, 1769, 1714, 1679, 1667, 1628, 1765, 1862, 1783, 1683, 1740, 1779, 1847, 1775, 2022, 1659, 1688, 1656, 1588, 1669, 1737, 1695, 1778, 1704, 1639, 1728, 1701, 1770, 1627, 1943, 1758, 1664, 1772, 1769, 1787, 1719, 1719, 1680, 1727, 1691, 1703, 1650, 1768, 1716, 1675, 1671, 1951, 1838, 1763, 1735, 1729, 1832, 1806, 1716, 1735, 1803, 1844, 1769, 1734, 1779, 1778, 1729, 1744, 1789, 1928, 1932, 1795, 1799, 1823, 1797, 1764, 1741, 1733, 1767, 1750, 1827, 1765, 1773, 1749, 1737, 1779, 1814, 1895, 1988, 1821, 1595, 1776, 2030, 1850, 1843],
      "WindowCenter": [676.0, 674.0, 674.0, 673.0, 673.0, 673.0, 673.0, 673.0, 672.0, 672.0, 672.0, 672.0, 672.0, 673.0, 673.0, 672.0, 672.0, 672.0, 673.0, 672.0, 672.0, 672.0, 672.0, 673.0, 672.0, 672.0, 673.0, 673.0, 672.0, 673.0, 673.0, 673.0, 673.0, 673.0, 673.0, 673.0, 673.0, 673.0, 673.0, 673.0, 673.0, 673.0, 672.0, 673.0, 673.0, 674.0, 674.0, 674.0, 674.0, 674.0, 673.0, 673.0, 673.0, 673.0, 673.0, 674.0, 674.0, 674.0, 674.0, 673.0, 673.0, 674.0, 674.0, 674.0, 673.0, 673.0, 673.0, 675.0, 674.0, 674.0, 675.0, 674.0, 674.0, 674.0, 673.0, 673.0, 673.0, 673.0, 673.0, 673.0, 674.0, 674.0, 673.0, 673.0, 673.0, 673.0, 673.0, 672.0, 673.0, 674.0, 674.0, 674.0, 674.0, 673.0, 674.0, 673.0, 673.0, 674.0, 674.0, 673.0, 673.0, 674.0, 673.0, 673.0, 673.0, 673.0, 673.0, 673.0, 673.0, 673.0, 673.0, 673.0, 673.0, 674.0, 674.0, 675.0, 674.0, 674.0, 673.0, 673.0, 673.0, 673.0, 674.0, 674.0, 674.0, 673.0, 673.0, 673.0, 673.0, 673.0, 673.0, 673.0, 673.0, 673.0, 674.0, 674.0, 674.0, 674.0, 673.0, 673.0, 674.0, 674.0, 673.0, 673.0, 673.0, 675.0, 674.0, 674.0, 673.0, 673.0, 673.0, 674.0, 674.0, 673.0, 673.0, 674.0, 673.0, 673.0, 672.0, 672.0, 672.0, 673.0, 674.0, 673.0, 673.0, 673.0, 673.0, 674.0, 673.0, 673.0, 673.0, 673.0, 672.0, 672.0, 672.0, 673.0, 672.0, 673.0, 673.0, 673.0, 673.0, 673.0, 674.0, 673.0, 673.0, 673.0, 673.0, 673.0, 673.0, 673.0, 674.0, 674.0, 674.0, 673.0, 672.0, 673.0, 673.0, 673.0, 672.0, 673.0, 674.0, 673.0, 672.0, 672.0, 672.0, 673.0, 674.0, 674.0, 673.0, 673.0, 673.0, 673.0, 673.0, 672.0, 673.0, 672.0, 673.0, 672.0, 672.0, 673.0, 672.0, 672.0, 672.0, 672.0, 672.0, 672.0, 673.0, 673.0, 673.0, 673.0, 673.0, 674.0, 674.0, 673.0, 673.0, 673.0, 673.0, 673.0, 672.0, 672.0, 673.0, 673.0, 673.0, 673.0, 673.0, 673.0, 672.0, 673.0, 673.0, 673.0, 673.0, 673.0, 672.0, 672.0, 672.0, 672.0, 672.0, 672.0, 672.0, 673.0, 672.0, 672.0, 672.0, 672.0, 673.0, 673.0, 673.0, 674.0, 674.0, 673.0, 673.0, 674.0, 674.0, 673.0, 672.0],
      "WindowWidth": [1474.0, 1469.0, 1468.0, 1468.0, 1467.0, 1466.0, 1468.0, 1467.0, 1465.0, 1465.0, 1464.0, 1463.0, 1464.0, 1466.0, 1466.0, 1463.0, 1463.0, 1464.0, 1466.0, 1465.0, 1464.0, 1463.0, 1464.0, 1465.0, 1465.0, 1465.0, 1467.0, 1466.0, 1464.0, 1466.0, 1466.0, 1468.0, 1465.0, 1466.0, 1466.0, 1466.0, 1466.0, 1467.0, 1467.0, 1466.0, 1465.0, 1466.0, 1465.0, 1467.0, 1467.0, 1469.0, 1469.0, 1469.0, 1470.0, 1468.0, 1466.0, 1466.0, 1467.0, 1468.0, 1467.0, 1469.0, 1469.0, 1469.0, 1468.0, 1467.0, 1467.0, 1468.0, 1471.0, 1468.0, 1468.0, 1468.0, 1467.0, 1471.0, 1470.0, 1469.0, 1471.0, 1470.0, 1469.0, 1469.0, 1468.0, 1467.0, 1468.0, 1467.0, 1467.0, 1467.0, 1469.0, 1468.0, 1467.0, 1466.0, 1466.0, 1468.0, 1465.0, 1464.0, 1466.0, 1469.0, 1469.0, 1469.0, 1468.0, 1468.0, 1468.0, 1467.0, 1467.0, 1468.0, 1469.0, 1467.0, 1467.0, 1470.0, 1468.0, 1467.0, 1467.0, 1466.0, 1467.0, 1467.0, 1467.0, 1467.0, 1467.0, 1467.0, 1467.0, 1468.0, 1469.0, 1472.0, 1469.0, 1469.0, 1466.0, 1466.0, 1466.0, 1468.0, 1468.0, 1468.0, 1469.0, 1466.0, 1466.0, 1468.0, 1467.0, 1466.0, 1466.0, 1467.0, 1467.0, 1467.0, 1469.0, 1470.0, 1470.0, 1468.0, 1468.0, 1466.0, 1468.0, 1469.0, 1468.0, 1465.0, 1468.0, 1471.0, 1470.0, 1468.0, 1467.0, 1467.0, 1467.0, 1469.0, 1469.0, 1468.0, 1465.0, 1470.0, 1465.0, 1466.0, 1464.0, 1465.0, 1464.0, 1465.0, 1468.0, 1466.0, 1467.0, 1465.0, 1465.0, 1468.0, 1467.0, 1467.0, 1466.0, 1466.0, 1464.0, 1464.0, 1464.0, 1465.0, 1464.0, 1466.0, 1466.0, 1466.0, 1466.0, 1466.0, 1469.0, 1467.0, 1467.0, 1466.0, 1466.0, 1467.0, 1467.0, 1467.0, 1469.0, 1469.0, 1468.0, 1466.0, 1465.0, 1465.0, 1465.0, 1466.0, 1464.0, 1466.0, 1468.0, 1467.0, 1464.0, 1464.0, 1465.0, 1466.0, 1468.0, 1468.0, 1465.0, 1465.0, 1466.0, 1466.0, 1467.0, 1463.0, 1466.0, 1464.0, 1465.0, 1464.0, 1464.0, 1465.0, 1464.0, 1464.0, 1464.0, 1464.0, 1465.0, 1464.0, 1465.0, 1466.0, 1467.0, 1467.0, 1467.0, 1470.0, 1469.0, 1467.0, 1467.0, 1466.0, 1466.0, 1465.0, 1463.0, 1463.0, 1466.0, 1466.0, 1466.0, 1465.0, 1466.0, 1465.0, 1464.0, 1465.0, 1466.0, 1467.0, 1466.0, 1465.0, 1464.0, 1464.0, 1463.0, 1464.0, 1463.0, 1464.0, 1464.0, 1465.0, 1464.0, 1464.0, 1464.0, 1464.0, 1465.0, 1465.0, 1467.0, 1468.0, 1468.0, 1466.0, 1467.0, 1469.0, 1469.0, 1465.0, 1463.0]
    },
    "slices": {}
  }
}