{
  "AcquisitionMatrixPE": 64,
  "AcquisitionNumber": 1,
  "AcquisitionTime": "18:25:20.915000",
  "BandwidthPerPixelPhaseEncode": 31.888,
  "BaseResolution": 64,
  "BodyPartExamined": "HEAD",
  "CoilCombinationMethod": "Sum of Squares",
  "ConsistencyInfo": "N4_VE11C_LATEST_20160120",
  "ConversionSoftware": "dcm2niix",
  "ConversionSoftwareVersion": "v1.0.20211006",
  "DerivedVendorReportedEchoSpacing": 0.000489996,
  "DeviceSerialNumber": "167048",
  "EchoTime": 0.03,
  "EchoTrainLength": 64,
  "EffectiveEchoSpacing": 0.000489996,
  "FlipAngle": 90,
  "ImageOrientationPatientDICOM": [0.998984, -0.0187943, 0.0409537, 0.0226702, 0.995091, -0.0963319],
  "ImageType": [
    "ORIGINAL",
    "PRIMARY",
    "M",
    "ND",
    "NORM",
    "MOSAIC"
],
  "ImagingFrequency": 123.261,
  "InPlanePhaseEncodingDirectionDICOM": "COL",
  "InstitutionAddress": "Azinhaga Santa Comba StreetNo,Coimbra,District,PT,3000",
  "InstitutionName": "ICNAS",
  "MRAcquisitionType": "2D",
  "MagneticFieldStrength": 3,
  "Manufacturer": "Siemens",
  "ManufacturersModelName": "Prisma_fit",
  "MatrixCoilMode": "SENSE",
  "Modality": "MR",
  "PartialFourier": 1,
  "PatientPosition": "HFS",
  "PercentPhaseFOV": 100,
  "PercentSampling": 100,
  "PhaseEncodingDirection": "j-",
  "PhaseEncodingSteps": 64,
  "PhaseResolution": 1,
  "PixelBandwidth": 2365,
  "ProcedureStepDescription": "RM_FUNCIONAL",
  "ProtocolName": "rtfmri_neurofeedback_MTRun2",
  "PulseSequenceDetails": "%SiemensSeq%\\ep2d_bold",
  "ReceiveCoilActiveElements": "HE1-4",
  "ReceiveCoilName": "HeadNeck_20",
  "ReconMatrixPE": 64,
  "RepetitionTime": 2,
  "SAR": 0.149885,
  "ScanOptions": "FS",
  "ScanningSequence": "EP",
  "SequenceName": "*epfid2d1_64",
  "SequenceVariant": "SK",
  "SeriesDescription": "rtfmri_neurofeedback_MTRun2",
  "SeriesNumber": 5,
  "ShimSetting": [10184, 2097, 8360, 225, 42, -138, 169, -54],
  "SliceThickness": 3,
  "SliceTiming": [0, 1.02, 0.06, 1.08, 0.12, 1.14, 0.18, 1.2, 0.24, 1.26, 0.3, 1.32, 0.36, 1.38, 0.42, 1.44, 0.48, 1.5, 0.54, 1.56, 0.6, 1.62, 0.66, 1.68, 0.72, 1.74, 0.78, 1.8, 0.84, 1.86, 0.9, 1.92, 0.96],
  "SoftwareVersions": "syngo MR E11",
  "SpacingBetweenSlices": 3,
  "StationName": "MRC35377",
  "TaskName": "nf",
  "TotalReadoutTime": 0.0308698,
  "TxRefAmp": 309.684,
  "dcmmeta_affine": [
    [-3.9959359169006348, 0.0906808003783226, 0.11682650446891785, 124.96842193603516],
    [0.07517720013856888, 3.9803640842437744, -0.29148736596107483, -102.29181671142578],
    [0.16381479799747467, 0.38532760739326477, 2.983518123626709, -63.775028228759766],
    [0.0, 0.0, 0.0, 1.0]
],
  "dcmmeta_reorient_transform": [
    [0.0, -1.0, 0.0, 63.0],
    [1.0, 0.0, 0.0, 0.0],
    [0.0, 0.0, 1.0, 0.0],
    [0.0, 0.0, 0.0, 1.0]
],
  "dcmmeta_shape": [64, 64, 33, 275],
  "dcmmeta_slice_dim": 2,
  "dcmmeta_version": 0.6,
  "global": {
    "const": {
      "AccessionNumber": "0",
      "AcquisitionMatrix": [64, 0, 0, 64],
      "AngioFlag": "N",
      "BitsAllocated": 16,
      "BitsStored": 12,
      "BodyPartExamined": "HEAD",
      "Columns": 384,
      "EchoNumbers": 1,
      "EchoTime": 30.0,
      "EchoTrainLength": 64,
      "FlipAngle": 90.0,
      "HighBit": 11,
      "ImageOrientationPatient": [0.998984, -0.0187943, 0.0409537, 0.0226702, 0.995091, -0.0963319],
      "ImagePositionPatient": [-784.54, -773.301, -4.05734],
      "ImageType": [
        "ORIGINAL",
        "PRIMARY",
        "M",
        "ND",
        "NORM",
        "MOSAIC"
],
      "ImagedNucleus": "1H",
      "ImagingFrequency": 123.261,
      "InPlanePhaseEncodingDirection": "COL",
      "MRAcquisitionType": "2D",
      "MagneticFieldStrength": 3.0,
      "Manufacturer": "SIEMENS",
      "ManufacturerModelName": "Prisma_fit",
      "Modality": "MR",
      "NumberOfAverages": 1.0,
      "NumberOfFrames": 1,
      "NumberOfPhaseEncodingSteps": 64,
      "PercentPhaseFieldOfView": 100.0,
      "PercentSampling": 100.0,
      "PerformedProcedureStepStartTime": "173837.747000",
      "PhotometricInterpretation": "MONOCHROME2",
      "PixelBandwidth": 2365.0,
      "PixelRepresentation": 0,
      "PixelSpacing": [4.0, 4.0],
      "ProtocolName": "rtfmri_neurofeedback_MTRun2",
      "RepetitionTime": 2000.0,
      "RequestAttributesSequence": [
        {
          "RequestedProcedureID": "1265",
          "ScheduledProcedureStepDescription": "RM_FUNCIONAL",
          "ScheduledProcedureStepID": "1"}
],
      "Rows": 384,
      "SAR": 0.149885,
      "SamplesPerPixel": 1,
      "ScanOptions": "FS",
      "ScanningSequence": "EP",
      "SequenceName": "*epfid2d1_64",
      "SequenceVariant": "SK",
      "SeriesDescription": "rtfmri_neurofeedback_MTRun2",
      "SeriesNumber": 5,
      "SeriesTime": "182523.562000",
      "SliceLocation": -48.6191,
      "SliceThickness": 3.0,
      "SmallestImagePixelValue": 0,
      "SoftwareVersions": "syngo MR E11",
      "SpacingBetweenSlices": 3.0,
      "SpecificCharacterSet": "ISO_IR 100",
      "StudyID": "1265",
      "StudyTime": "173836.084000",
      "TransmitCoilName": "Body",
      "VariableFlipAngleFlag": "N",
      "WindowCenterWidthExplanation": "Algo1",
      "dBdt": 0.0},
    "slices": {}
  },
  "time": {
    "samples": {
      "AcquisitionNumber": [1, 2, 3, 4, 5, 6, 7, 8, 9, 10, 11, 12, 13, 14, 15, 16, 17, 18, 19, 20, 21, 22, 23, 24, 25, 26, 27, 28, 29, 30, 31, 32, 33, 34, 35, 36, 37, 38, 39, 40, 41, 42, 43, 44, 45, 46, 47, 48, 49, 50, 51, 52, 53, 54, 55, 56, 57, 58, 59, 60, 61, 62, 63, 64, 65, 66, 67, 68, 69, 70, 71, 72, 73, 74, 75, 76, 77, 78, 79, 80, 81, 82, 83, 84, 85, 86, 87, 88, 89, 90, 91, 92, 93, 94, 95, 96, 97, 98, 99, 100, 101, 102, 103, 104, 105, 106, 107, 108, 109, 110, 111, 112, 113, 114, 115, 116, 117, 118, 119, 120, 121, 122, 123, 124, 125, 126, 127, 128, 129, 130, 131, 132, 133, 134, 135, 136, 137, 138, 139, 140, 141, 142, 143, 144, 145, 146, 147, 148, 149, 150, 151, 152, 153, 154, 155, 156, 157, 158, 159, 160, 161, 162, 163, 164, 165, 166, 167, 168, 169, 170, 171, 172, 173, 174, 175, 176, 177, 178, 179, 180, 181, 182, 183, 184, 185, 186, 187, 188, 189, 190, 191, 192, 193, 194, 195, 196, 197, 198, 199, 200, 201, 202, 203, 204, 205, 206, 207, 208, 209, 210, 211, 212, 213, 214, 215, 216, 217, 218, 219, 220, 221, 222, 223, 224, 225, 226, 227, 228, 229, 230, 231, 232, 233, 234, 235, 236, 237, 238, 239, 240, 241, 242, 243, 244, 245, 246, 247, 248, 249, 250, 251, 252, 253, 254, 255, 256, 257, 258, 259, 260, 261, 262, 263, 264, 265, 266, 267, 268, 269, 270, 271, 272, 273, 274, 275],
      "AcquisitionTime": ["182520.915000", "182522.915000", "182524.915000", "182526.915000", "182528.915000", "182530.915000", "182532.915000", "182534.915000", "182536.915000", "182538.915000", "182540.915000", "182542.915000", "182544.915000", "182546.915000", "182548.915000", "182550.915000", "182552.915000", "182554.915000", "182556.915000", "182558.915000", "182600.915000", "182602.915000", "182604.915000", "182606.915000", "182608.915000", "182610.915000", "182612.915000", "182614.915000", "182616.915000", "182618.915000", "182620.915000", "182622.915000", "182624.915000", "182626.915000", "182628.915000", "182630.915000", "182632.915000", "182634.915000", "182636.915000", "182638.915000", "182640.915000", "182642.915000", "182644.915000", "182646.915000", "182648.915000", "182650.915000", "182652.915000", "182654.915000", "182656.915000", "182658.915000", "182700.915000", "182702.915000", "182704.915000", "182706.915000", "182708.915000", "182710.915000", "182712.915000", "182714.915000", "182716.915000", "182718.915000", "182720.915000", "182722.915000", "182724.915000", "182726.915000", "182728.915000", "182730.915000", "182732.915000", "182734.915000", "182736.915000", "182738.915000", "182740.915000", "182742.915000", "182744.915000", "182746.915000", "182748.915000", "182750.915000", "182752.915000", "182754.915000", "182756.915000", "182758.915000", "182800.915000", "182802.915000", "182804.915000", "182806.915000", "182808.915000", "182810.915000", "182812.915000", "182814.915000", "182816.915000", "182818.915000", "182820.915000", "182822.915000", "182824.915000", "182826.915000", "182828.915000", "182830.915000", "182832.915000", "182834.915000", "182836.915000", "182838.915000", "182840.915000", "182842.915000", "182844.915000", "182846.915000", "182848.915000", "182850.915000", "182852.915000", "182854.915000", "182856.915000", "182858.915000", "182900.915000", "182902.915000", "182904.915000", "182906.915000", "182908.915000", "182910.915000", "182912.915000", "182914.915000", "182916.915000", "182918.915000", "182920.915000", "182922.915000", "182924.915000", "182926.915000", "182928.915000", "182930.915000", "182932.915000", "182934.915000", "182936.915000", "182938.915000", "182940.915000", "182942.915000", "182944.915000", "182946.915000", "182948.915000", "182950.915000", "182952.915000", "182954.915000", "182956.915000", "182958.915000", "183000.915000", "183002.915000", "183004.915000", "183006.915000", "183008.915000", "183010.915000", "183012.915000", "183014.915000", "183016.915000", "183018.915000", "183020.915000", "183022.915000", "183024.915000", "183026.915000", "183028.915000", "183030.915000", "183032.915000", "183034.915000", "183036.915000", "183038.915000", "183040.915000", "183042.915000", "183044.915000", "183046.915000", "183048.915000", "183050.915000", "183052.915000", "183054.915000", "183056.915000", "183058.915000", "183100.915000", "183102.915000", "183104.915000", "183106.915000", "183108.915000", "183110.915000", "183112.915000", "183114.915000", "183116.915000", "183118.915000", "183120.915000", "183122.915000", "183124.915000", "183126.915000", "183128.915000", "183130.915000", "183132.915000", "183134.915000", "183136.915000", "183138.915000", "183140.915000", "183142.915000", "183144.915000", "183146.915000", "183148.915000", "183150.915000", "183152.915000", "183154.915000", "183156.915000", "183158.915000", "183200.915000", "183202.915000", "183204.915000", "183206.915000", "183208.915000", "183210.915000", "183212.915000", "183214.915000", "183216.915000", "183218.915000", "183220.915000", "183222.915000", "183224.915000", "183226.915000", "183228.915000", "183230.915000", "183232.915000", "183234.915000", "183236.915000", "183238.915000", "183240.915000", "183242.915000", "183244.915000", "183246.915000", "183248.915000", "183250.915000", "183252.915000", "183254.915000", "183256.915000", "183258.915000", "183300.915000", "183302.915000", "183304.915000", "183306.915000", "183308.915000", "183310.915000", "183312.915000", "183314.915000", "183316.915000", "183318.915000", "183320.915000", "183322.915000", "183324.915000", "183326.915000", "183328.915000", "183330.915000", "183332.915000", "183334.915000", "183336.915000", "183338.915000", "183340.915000", "183342.915000", "183344.915000", "183346.915000", "183348.915000", "183350.915000", "183352.915000", "183354.915000", "183356.915000", "183358.915000", "183400.915000", "183402.915000", "183404.915000", "183406.915000", "183408.915000", "183410.915000", "183412.915000", "183414.915000", "183416.915000", "183418.915000", "183420.915000", "183422.915000", "183424.915000", "183426.915000", "183428.915000"],
      "ContentTime": ["182523.565000", "182525.560000", "182527.560000", "182529.560000", "182531.560000", "182533.559000", "182535.560000", "182537.560000", "182539.560000", "182541.560000", "182543.560000", "182545.560000", "182547.560000", "182549.560000", "182551.559000", "182553.560000", "182555.560000", "182557.560000", "182559.560000", "182601.560000", "182603.560000", "182605.560000", "182607.560000", "182609.560000", "182611.560000", "182613.560000", "182615.560000", "182617.560000", "182619.560000", "182621.560000", "182623.560000", "182625.559000", "182627.560000", "182629.560000", "182631.560000", "182633.560000", "182635.560000", "182637.560000", "182639.560000", "182641.560000", "182643.559000", "182645.560000", "182647.560000", "182649.560000", "182651.560000", "182653.560000", "182655.560000", "182657.560000", "182659.560000", "182701.559000", "182703.560000", "182705.560000", "182707.560000", "182709.560000", "182711.560000", "182713.560000", "182715.560000", "182717.560000", "182719.560000", "182721.560000", "182723.560000", "182725.560000", "182727.560000", "182729.560000", "182731.560000", "182733.560000", "182735.559000", "182737.560000", "182739.560000", "182741.560000", "182743.560000", "182745.560000", "182747.560000", "182749.560000", "182751.560000", "182753.559000", "182755.560000", "182757.560000", "182759.560000", "182801.560000", "182803.560000", "182805.560000", "182807.560000", "182809.560000", "182811.559000", "182813.560000", "182815.560000", "182817.560000", "182819.560000", "182821.560000", "182823.560000", "182825.560000", "182827.560000", "182829.560000", "182831.560000", "182833.560000", "182835.560000", "182837.560000", "182839.560000", "182841.560000", "182843.560000", "182845.559000", "182847.560000", "182849.560000", "182851.560000", "182853.560000", "182855.560000", "182857.560000", "182859.560000", "182901.560000", "182903.559000", "182905.560000", "182907.560000", "182909.560000", "182911.560000", "182913.560000", "182915.560000", "182917.560000", "182919.560000", "182921.559000", "182923.560000", "182925.560000", "182927.560000", "182929.560000", "182931.560000", "182933.560000", "182935.560000", "182937.560000", "182939.560000", "182941.560000", "182943.560000", "182945.560000", "182947.560000", "182949.560000", "182951.560000", "182953.560000", "182955.559000", "182957.560000", "182959.560000", "183001.560000", "183003.560000", "183005.560000", "183007.560000", "183009.560000", "183011.560000", "183013.559000", "183015.560000", "183017.560000", "183019.560000", "183021.560000", "183023.560000", "183025.560000", "183027.560000", "183029.560000", "183031.559000", "183033.560000", "183035.560000", "183037.560000", "183039.560000", "183041.560000", "183043.560000", "183045.560000", "183047.560000", "183049.560000", "183051.560000", "183053.560000", "183055.560000", "183057.560000", "183059.560000", "183101.560000", "183103.560000", "183105.559000", "183107.560000", "183109.560000", "183111.560000", "183113.560000", "183115.560000", "183117.560000", "183119.560000", "183121.560000", "183123.559000", "183125.560000", "183127.560000", "183129.560000", "183131.560000", "183133.560000", "183135.560000", "183137.560000", "183139.560000", "183141.560000", "183143.560000", "183145.560000", "183147.560000", "183149.560000", "183151.560000", "183153.560000", "183155.560000", "183157.560000", "183159.560000", "183201.560000", "183203.560000", "183205.560000", "183207.560000", "183209.560000", "183211.560000", "183213.560000", "183215.559000", "183217.560000", "183219.573000", "183221.560000", "183223.560000", "183225.560000", "183227.560000", "183229.560000", "183231.561000", "183233.559000", "183235.560000", "183237.560000", "183239.560000", "183241.560000", "183243.560000", "183245.560000", "183247.560000", "183249.560000", "183251.560000", "183253.560000", "183255.560000", "183257.560000", "183259.560000", "183301.560000", "183303.560000", "183305.560000", "183307.560000", "183309.560000", "183311.560000", "183313.560000", "183315.560000", "183317.560000", "183319.560000", "183321.560000", "183323.560000", "183325.559000", "183327.560000", "183329.560000", "183331.560000", "183333.560000", "183335.560000", "183337.560000", "183339.560000", "183341.560000", "183343.559000", "183345.560000", "183347.560000", "183349.560000", "183351.560000", "183353.560000", "183355.560000", "183357.560000", "183359.560000", "183401.560000", "183403.560000", "183405.560000", "183407.560000", "183409.560000", "183411.560000", "183413.560000", "183415.560000", "183417.559000", "183419.560000", "183421.560000", "183423.560000", "183425.560000", "183427.560000", "183429.560000", "183431.284000"],
      "InstanceCreationTime": ["182523.565000", "182525.560000", "182527.560000", "182529.560000", "182531.560000", "182533.559000", "182535.560000", "182537.560000", "182539.560000", "182541.560000", "182543.560000", "182545.560000", "182547.560000", "182549.560000", "182551.559000", "182553.560000", "182555.560000", "182557.560000", "182559.560000", "182601.560000", "182603.560000", "182605.560000", "182607.560000", "182609.560000", "182611.560000", "182613.560000", "182615.560000", "182617.560000", "182619.560000", "182621.560000", "182623.560000", "182625.559000", "182627.560000", "182629.560000", "182631.560000", "182633.560000", "182635.560000", "182637.560000", "182639.560000", "182641.560000", "182643.559000", "182645.560000", "182647.560000", "182649.560000", "182651.560000", "182653.560000", "182655.560000", "182657.560000", "182659.560000", "182701.559000", "182703.560000", "182705.560000", "182707.560000", "182709.560000", "182711.560000", "182713.560000", "182715.560000", "182717.560000", "182719.560000", "182721.560000", "182723.560000", "182725.560000", "182727.560000", "182729.560000", "182731.560000", "182733.560000", "182735.559000", "182737.560000", "182739.560000", "182741.560000", "182743.560000", "182745.560000", "182747.560000", "182749.560000", "182751.560000", "182753.559000", "182755.560000", "182757.560000", "182759.560000", "182801.560000", "182803.560000", "182805.560000", "182807.560000", "182809.560000", "182811.559000", "182813.560000", "182815.560000", "182817.560000", "182819.560000", "182821.560000", "182823.560000", "182825.560000", "182827.560000", "182829.560000", "182831.560000", "182833.560000", "182835.560000", "182837.560000", "182839.560000", "182841.560000", "182843.560000", "182845.559000", "182847.560000", "182849.560000", "182851.560000", "182853.560000", "182855.560000", "182857.560000", "182859.560000", "182901.560000", "182903.559000", "182905.560000", "182907.560000", "182909.560000", "182911.560000", "182913.560000", "182915.560000", "182917.560000", "182919.560000", "182921.559000", "182923.560000", "182925.560000", "182927.560000", "182929.560000", "182931.560000", "182933.560000", "182935.560000", "182937.560000", "182939.560000", "182941.560000", "182943.560000", "182945.560000", "182947.560000", "182949.560000", "182951.560000", "182953.560000", "182955.559000", "182957.560000", "182959.560000", "183001.560000", "183003.560000", "183005.560000", "183007.560000", "183009.560000", "183011.560000", "183013.559000", "183015.560000", "183017.560000", "183019.560000", "183021.560000", "183023.560000", "183025.560000", "183027.560000", "183029.560000", "183031.559000", "183033.560000", "183035.560000", "183037.560000", "183039.560000", "183041.560000", "183043.560000", "183045.560000", "183047.560000", "183049.560000", "183051.560000", "183053.560000", "183055.560000", "183057.560000", "183059.560000", "183101.560000", "183103.560000", "183105.559000", "183107.560000", "183109.560000", "183111.560000", "183113.560000", "183115.560000", "183117.560000", "183119.560000", "183121.560000", "183123.559000", "183125.560000", "183127.560000", "183129.560000", "183131.560000", "183133.560000", "183135.560000", "183137.560000", "183139.560000", "183141.560000", "183143.560000", "183145.560000", "183147.560000", "183149.560000", "183151.560000", "183153.560000", "183155.560000", "183157.560000", "183159.560000", "183201.560000", "183203.560000", "183205.560000", "183207.560000", "183209.560000", "183211.560000", "183213.560000", "183215.559000", "183217.560000", "183219.573000", "183221.560000", "183223.560000", "183225.560000", "183227.560000", "183229.560000", "183231.561000", "183233.559000", "183235.560000", "183237.560000", "183239.560000", "183241.560000", "183243.560000", "183245.560000", "183247.560000", "183249.560000", "183251.560000", "183253.560000", "183255.560000", "183257.560000", "183259.560000", "183301.560000", "183303.560000", "183305.560000", "183307.560000", "183309.560000", "183311.560000", "183313.560000", "183315.560000", "183317.560000", "183319.560000", "183321.560000", "183323.560000", "183325.559000", "183327.560000", "183329.560000", "183331.560000", "183333.560000", "183335.560000", "183337.560000", "183339.560000", "183341.560000", "183343.559000", "183345.560000", "183347.560000", "183349.560000", "183351.560000", "183353.560000", "183355.560000", "183357.560000", "183359.560000", "183401.560000", "183403.560000", "183405.560000", "183407.560000", "183409.560000", "183411.560000", "183413.560000", "183415.560000", "183417.559000", "183419.560000", "183421.560000", "183423.560000", "183425.560000", "183427.560000", "183429.560000", "183431.284000"],
      "InstanceNumber": [1, 2, 3, 4, 5, 6, 7, 8, 9, 10, 11, 12, 13, 14, 15, 16, 17, 18, 19, 20, 21, 22, 23, 24, 25, 26, 27, 28, 29, 30, 31, 32, 33, 34, 35, 36, 37, 38, 39, 40, 41, 42, 43, 44, 45, 46, 47, 48, 49, 50, 51, 52, 53, 54, 55, 56, 57, 58, 59, 60, 61, 62, 63, 64, 65, 66, 67, 68, 69, 70, 71, 72, 73, 74, 75, 76, 77, 78, 79, 80, 81, 82, 83, 84, 85, 86, 87, 88, 89, 90, 91, 92, 93, 94, 95, 96, 97, 98, 99, 100, 101, 102, 103, 104, 105, 106, 107, 108, 109, 110, 111, 112, 113, 114, 115, 116, 117, 118, 119, 120, 121, 122, 123, 124, 125, 126, 127, 128, 129, 130, 131, 132, 133, 134, 135, 136, 137, 138, 139, 140, 141, 142, 143, 144, 145, 146, 147, 148, 149, 150, 151, 152, 153, 154, 155, 156, 157, 158, 159, 160, 161, 162, 163, 164, 165, 166, 167, 168, 169, 170, 171, 172, 173, 174, 175, 176, 177, 178, 179, 180, 181, 182, 183, 184, 185, 186, 187, 188, 189, 190, 191, 192, 193, 194, 195, 196, 197, 198, 199, 200, 201, 202, 203, 204, 205, 206, 207, 208, 209, 210, 211, 212, 213, 214, 215, 216, 217, 218, 219, 220, 221, 222, 223, 224, 225, 226, 227, 228, 229, 230, 231, 232, 233, 234, 235, 236, 237, 238, 239, 240, 241, 242, 243, 244, 245, 246, 247, 248, 249, 250, 251, 252, 253, 254, 255, 256, 257, 258, 259, 260, 261, 262, 263, 264, 265, 266, 267, 268, 269, 270, 271, 272, 273, 274, 275],
      "LargestImagePixelValue": [1626, 1710, 1415, 1452, 1461, 1808, 1648, 1582, 1701, 1464, 1437, 1731, 1417, 1411, 1658, 1448, 1519, 1795, 1471, 1455, 1576, 1441, 1426, 1399, 1391, 1610, 1828, 1449, 1735, 1483, 1442, 1438, 1460, 1513, 1721, 1445, 1428, 1832, 1480, 1403, 1439, 1523, 1646, 1659, 1412, 1548, 1482, 1446, 1587, 1649, 1533, 1556, 1440, 1425, 1754, 1627, 1448, 1449, 1510, 1587, 1772, 1461, 1399, 1459, 1506, 1422, 1438, 1408, 1644, 1432, 1735, 1399, 1410, 1455, 1700, 1608, 1697, 1423, 1428, 1444, 1741, 1597, 1476, 1549, 1533, 1481, 1627, 1415, 1424, 1726, 1584, 1698, 1835, 1464, 1654, 1820, 1424, 1414, 1490, 1462, 1544, 1509, 1445, 1459, 1703, 1783, 1459, 1695, 1529, 1752, 1439, 1441, 1523, 1580, 1457, 1832, 1450, 1618, 1735, 1501, 1452, 1433, 1492, 1610, 1549, 1424, 1404, 1459, 1487, 1743, 1767, 1439, 1609, 1763, 1574, 1692, 1480, 1410, 1472, 1561, 1454, 1495, 1699, 1441, 1420, 1566, 1471, 1442, 1535, 1920, 1418, 1547, 1688, 1459, 1417, 1521, 1464, 1602, 1799, 1408, 1572, 1425, 1643, 1441, 1562, 1649, 1443, 1465, 1708, 1486, 1403, 1541, 1443, 1452, 1563, 1533, 1393, 1427, 1566, 1583, 1656, 1419, 1398, 1560, 1698, 1392, 1389, 1467, 1569, 1860, 1568, 1407, 1416, 1415, 1661, 1728, 1454, 1611, 1656, 1447, 1397, 1563, 1435, 1501, 1608, 1460, 1405, 1514, 1513, 1409, 1450, 1517, 1397, 1558, 1614, 1390, 1429, 1419, 1481, 1429, 1418, 1435, 1711, 1530, 1734, 1470, 1460, 1407, 1400, 1438, 1567, 1696, 1432, 1634, 1542, 1411, 1587, 1582, 1444, 1540, 1758, 1495, 1463, 1476, 1461, 1448, 1682, 1818, 1423, 1424, 1685, 1571, 1398, 1687, 1395, 1411, 1533, 1731, 1749, 1434, 1408, 1578, 1477, 1406, 1434, 1464, 1415, 1951, 1655, 1447, 1636, 1414, 1381, 1437, 1427],
      "WindowCenter": [661.0, 660.0, 659.0, 659.0, 659.0, 659.0, 659.0, 659.0, 659.0, 658.0, 659.0, 659.0, 659.0, 659.0, 660.0, 659.0, 658.0, 659.0, 659.0, 659.0, 659.0, 659.0, 660.0, 659.0, 660.0, 660.0, 660.0, 659.0, 660.0, 660.0, 660.0, 660.0, 659.0, 660.0, 661.0, 660.0, 660.0, 660.0, 658.0, 659.0, 660.0, 659.0, 659.0, 659.0, 658.0, 659.0, 659.0, 659.0, 659.0, 659.0, 658.0, 659.0, 659.0, 659.0, 660.0, 659.0, 659.0, 659.0, 659.0, 658.0, 659.0, 658.0, 658.0, 658.0, 659.0, 658.0, 659.0, 659.0, 660.0, 659.0, 661.0, 659.0, 659.0, 660.0, 660.0, 659.0, 660.0, 659.0, 659.0, 660.0, 660.0, 659.0, 659.0, 659.0, 659.0, 658.0, 658.0, 660.0, 660.0, 660.0, 659.0, 659.0, 660.0, 658.0, 659.0, 660.0, 658.0, 658.0, 658.0, 658.0, 658.0, 660.0, 659.0, 659.0, 659.0, 659.0, 658.0, 659.0, 658.0, 659.0, 658.0, 658.0, 659.0, 659.0, 658.0, 660.0, 658.0, 659.0, 659.0, 658.0, 658.0, 658.0, 658.0, 659.0, 659.0, 658.0, 658.0, 659.0, 659.0, 660.0, 659.0, 658.0, 659.0, 658.0, 658.0, 658.0, 658.0, 658.0, 658.0, 658.0, 658.0, 658.0, 659.0, 658.0, 658.0, 659.0, 659.0, 659.0, 659.0, 660.0, 658.0, 658.0, 658.0, 657.0, 658.0, 658.0, 658.0, 659.0, 659.0, 657.0, 659.0, 658.0, 658.0, 658.0, 658.0, 658.0, 658.0, 658.0, 658.0, 657.0, 657.0, 658.0, 658.0, 658.0, 658.0, 658.0, 658.0, 658.0, 659.0, 659.0, 659.0, 658.0, 658.0, 658.0, 658.0, 658.0, 658.0, 659.0, 659.0, 660.0, 658.0, 658.0, 658.0, 658.0, 659.0, 659.0, 658.0, 658.0, 658.0, 657.0, 658.0, 658.0, 657.0, 658.0, 658.0, 658.0, 658.0, 658.0, 658.0, 658.0, 658.0, 658.0, 658.0, 658.0, 658.0, 657.0, 658.0, 658.0, 658.0, 658.0, 659.0, 659.0, 660.0, 659.0, 659.0, 658.0, 658.0, 658.0, 658.0, 658.0, 659.0, 659.0, 658.0, 660.0, 659.0, 658.0, 658.0, 658.0, 658.0, 658.0, 659.0, 658.0, 658.0, 659.0, 659.0, 658.0, 659.0, 659.0, 658.0, 659.0, 659.0, 658.0, 658.0, 659.0, 658.0, 658.0, 658.0, 658.0, 658.0, 657.0, 658.0, 658.0, 657.0, 657.0, 658.0, 659.0, 658.0, 660.0, 658.0, 657.0, 658.0, 657.0, 657.0, 658.0, 659.0],
      "WindowWidth": [1408.0, 1405.0, 1403.0, 1403.0, 1402.0, 1404.0, 1402.0, 1402.0, 1403.0, 1401.0, 1402.0, 1403.0, 1402.0, 1404.0, 1405.0, 1402.0, 1402.0, 1404.0, 1403.0, 1403.0, 1404.0, 1403.0, 1405.0, 1404.0, 1406.0, 1405.0, 1405.0, 1403.0, 1406.0, 1404.0, 1405.0, 1405.0, 1404.0, 1407.0, 1408.0, 1406.0, 1405.0, 1406.0, 1401.0, 1404.0, 1405.0, 1403.0, 1404.0, 1403.0, 1401.0, 1403.0, 1403.0, 1404.0, 1404.0, 1403.0, 1401.0, 1403.0, 1403.0, 1403.0, 1406.0, 1403.0, 1403.0, 1403.0, 1402.0, 1402.0, 1403.0, 1401.0, 1402.0, 1402.0, 1403.0, 1402.0, 1403.0, 1404.0, 1405.0, 1404.0, 1408.0, 1403.0, 1403.0, 1405.0, 1406.0, 1404.0, 1405.0, 1403.0, 1403.0, 1405.0, 1406.0, 1404.0, 1402.0, 1403.0, 1402.0, 1400.0, 1401.0, 1405.0, 1406.0, 1406.0, 1403.0, 1403.0, 1404.0, 1401.0, 1403.0, 1404.0, 1400.0, 1401.0, 1401.0, 1400.0, 1401.0, 1405.0, 1404.0, 1403.0, 1404.0, 1404.0, 1401.0, 1404.0, 1401.0, 1402.0, 1400.0, 1402.0, 1403.0, 1404.0, 1402.0, 1404.0, 1401.0, 1403.0, 1403.0, 1400.0, 1400.0, 1401.0, 1402.0, 1402.0, 1402.0, 1402.0, 1401.0, 1402.0, 1403.0, 1404.0, 1403.0, 1401.0, 1402.0, 1401.0, 1400.0, 1401.0, 1400.0, 1400.0, 1401.0, 1402.0, 1400.0, 1401.0, 1403.0, 1401.0, 1401.0, 1402.0, 1403.0, 1403.0, 1403.0, 1404.0, 1400.0, 1401.0, 1401.0, 1399.0, 1400.0, 1401.0, 1401.0, 1403.0, 1403.0, 1399.0, 1402.0, 1401.0, 1401.0, 1400.0, 1401.0, 1401.0, 1400.0, 1401.0, 1401.0, 1398.0, 1399.0, 1400.0, 1400.0, 1400.0, 1401.0, 1400.0, 1401.0, 1401.0, 1402.0, 1403.0, 1403.0, 1400.0, 1400.0, 1400.0, 1401.0, 1400.0, 1401.0, 1403.0, 1403.0, 1404.0, 1401.0, 1400.0, 1400.0, 1400.0, 1402.0, 1402.0, 1400.0, 1401.0, 1400.0, 1399.0, 1401.0, 1401.0, 1399.0, 1399.0, 1400.0, 1400.0, 1401.0, 1402.0, 1401.0, 1401.0, 1401.0, 1402.0, 1399.0, 1401.0, 1401.0, 1399.0, 1401.0, 1400.0, 1401.0, 1402.0, 1404.0, 1404.0, 1404.0, 1402.0, 1403.0, 1400.0, 1401.0, 1400.0, 1400.0, 1401.0, 1402.0, 1402.0, 1401.0, 1405.0, 1402.0, 1400.0, 1401.0, 1401.0, 1401.0, 1401.0, 1402.0, 1399.0, 1401.0, 1403.0, 1403.0, 1401.0, 1402.0, 1402.0, 1401.0, 1404.0, 1404.0, 1401.0, 1399.0, 1402.0, 1400.0, 1400.0, 1401.0, 1401.0, 1400.0, 1398.0, 1400.0, 1401.0, 1399.0, 1399.0, 1400.0, 1402.0, 1401.0, 1405.0, 1400.0, 1399.0, 1399.0, 1399.0, 1399.0, 1401.0, 1402.0]
    },
    "slices": {}
  }
}