{
  "AcquisitionMatrixPE": 64,
  "AcquisitionNumber": 1,
  "AcquisitionTime": "14:28:38.905000",
  "BandwidthPerPixelPhaseEncode": 31.888,
  "BaseResolution": 64,
  "BodyPartExamined": "HEAD",
  "CoilCombinationMethod": "Sum of Squares",
  "ConsistencyInfo": "N4_VE11C_LATEST_20160120",
  "ConversionSoftware": "dcm2niix",
  "ConversionSoftwareVersion": "v1.0.20211006",
  "DerivedVendorReportedEchoSpacing": 0.000489996,
  "DeviceSerialNumber": "167048",
  "DwellTime": 3.3e-06,
  "EchoTime": 0.03,
  "EchoTrainLength": 64,
  "EffectiveEchoSpacing": 0.000489996,
  "FlipAngle": 90,
  "ImageOrientationPatientDICOM": [0.996841, -0.0676288, 0.0416361, 0.0697059, 0.996282, -0.0506389],
  "ImageOrientationText": "Tra>Cor(-3.1)>Sag(2.2)",
  "ImageType": [
    "ORIGINAL",
    "PRIMARY",
    "M",
    "ND",
    "NORM",
    "MOSAIC"
],
  "ImagingFrequency": 123.261,
  "InPlanePhaseEncodingDirectionDICOM": "COL",
  "InstitutionAddress": "Azinhaga Santa Comba StreetNo,Coimbra,District,PT,3000",
  "InstitutionName": "ICNAS",
  "InstitutionalDepartmentName": "Department",
  "MRAcquisitionType": "2D",
  "MagneticFieldStrength": 3,
  "Manufacturer": "Siemens",
  "ManufacturersModelName": "Prisma_fit",
  "MatrixCoilMode": "SENSE",
  "Modality": "MR",
  "PartialFourier": 1,
  "PatientPosition": "HFS",
  "PercentPhaseFOV": 100,
  "PercentSampling": 100,
  "PhaseEncodingDirection": "j-",
  "PhaseEncodingSteps": 64,
  "PhaseResolution": 1,
  "PixelBandwidth": 2365,
  "ProcedureStepDescription": "RM_FUNCIONAL",
  "ProtocolName": "rtfmri_neurofeedback_MTRun1",
  "PulseSequenceDetails": "%SiemensSeq%\\ep2d_bold",
  "ReceiveCoilActiveElements": "HE1-4",
  "ReceiveCoilName": "HeadNeck_20",
  "ReconMatrixPE": 64,
  "RepetitionTime": 2,
  "SAR": 0.113065,
  "ScanOptions": "FS",
  "ScanningSequence": "EP",
  "SequenceName": "*epfid2d1_64",
  "SequenceVariant": "SK",
  "SeriesDescription": "rtfmri_neurofeedback_MTRun1",
  "SeriesNumber": 4,
  "ShimSetting": [10173, 2052, 8340, 449, 7, -240, 223, -41],
  "SliceThickness": 3,
  "SliceTiming": [0, 1.02, 0.06, 1.08, 0.12, 1.14, 0.18, 1.2, 0.24, 1.26, 0.3, 1.32, 0.36, 1.38, 0.42, 1.44, 0.48, 1.5, 0.54, 1.56, 0.6, 1.62, 0.66, 1.68, 0.72, 1.74, 0.78, 1.8, 0.84, 1.86, 0.9, 1.92, 0.96],
  "SoftwareVersions": "syngo MR E11",
  "SpacingBetweenSlices": 3,
  "StationName": "MRC35377",
  "TaskName": "nf",
  "TotalReadoutTime": 0.0308698,
  "TxRefAmp": 269.487,
  "dcmmeta_affine": [
    [-3.98736572265625, 0.2788235545158386, 0.11416986584663391, 119.9438705444336],
    [0.2705151438713074, 3.98512601852417, -0.16014380753040314, -121.10086822509766],
    [0.16654439270496368, 0.20255574584007263, 2.9935462474823, -48.51320266723633],
    [0.0, 0.0, 0.0, 1.0]
],
  "dcmmeta_reorient_transform": [
    [0.0, -1.0, 0.0, 63.0],
    [1.0, 0.0, 0.0, 0.0],
    [0.0, 0.0, 1.0, 0.0],
    [0.0, 0.0, 0.0, 1.0]
],
  "dcmmeta_shape": [64, 64, 33, 275],
  "dcmmeta_slice_dim": 2,
  "dcmmeta_version": 0.6,
  "global": {
    "const": {
      "AccessionNumber": "0",
      "AcquisitionMatrix": [64, 0, 0, 64],
      "AngioFlag": "N",
      "BitsAllocated": 16,
      "BitsStored": 12,
      "BodyPartExamined": "HEAD",
      "Columns": 384,
      "EchoNumbers": 1,
      "EchoTime": 30.0,
      "EchoTrainLength": 64,
      "FlipAngle": 90.0,
      "HighBit": 11,
      "ImageOrientationPatient": [0.99684140277864, -0.0676287888954, 0.04163609754606, 0.06970589038085, 0.99628147981791, -0.050638935791],
      "ImagePositionPatient": [-820.10002221298, -724.29978719737, -29.990372687592],
      "ImageType": [
        "ORIGINAL",
        "PRIMARY",
        "M",
        "ND",
        "NORM",
        "MOSAIC"
],
      "ImagedNucleus": "1H",
      "ImagingFrequency": 123.261354,
      "InPlanePhaseEncodingDirection": "COL",
      "MRAcquisitionType": "2D",
      "MagneticFieldStrength": 3.0,
      "Manufacturer": "SIEMENS",
      "ManufacturerModelName": "Prisma_fit",
      "Modality": "MR",
      "NumberOfAverages": 1.0,
      "NumberOfPhaseEncodingSteps": 64,
      "PercentPhaseFieldOfView": 100.0,
      "PercentSampling": 100.0,
      "PerformedProcedureStepStartTime": "135311.940000",
      "PhotometricInterpretation": "MONOCHROME2",
      "PixelBandwidth": 2365.0,
      "PixelRepresentation": 0,
      "PixelSpacing": [4.0, 4.0],
      "ProtocolName": "rtfmri_neurofeedback_MTRun1",
      "RepetitionTime": 2000.0,
      "RequestAttributesSequence": [
        {
          "RequestedProcedureID": "1230",
          "ScheduledProcedureStepDescription": "RM_FUNCIONAL",
          "ScheduledProcedureStepID": "1"}
],
      "Rows": 384,
      "SAR": 0.11306528802776,
      "SamplesPerPixel": 1,
      "ScanOptions": "FS",
      "ScanningSequence": "EP",
      "SequenceName": "*epfid2d1_64",
      "SequenceVariant": "SK",
      "SeriesDescription": "rtfmri_neurofeedback_MTRun1",
      "SeriesNumber": 4,
      "SeriesTime": "142841.878000",
      "SliceLocation": -37.37966044016,
      "SliceThickness": 3.0,
      "SmallestImagePixelValue": 0,
      "SoftwareVersions": "syngo MR E11",
      "SpacingBetweenSlices": 2.9999999897285,
      "SpecificCharacterSet": "ISO_IR 100",
      "StudyID": "1230",
      "StudyTime": "135310.312000",
      "TransmitCoilName": "Body",
      "VariableFlipAngleFlag": "N",
      "WindowCenterWidthExplanation": "Algo1",
      "dBdt": 0.0},
    "slices": {}
  },
  "time": {
    "samples": {
      "AcquisitionNumber": [1, 2, 3, 4, 5, 6, 7, 8, 9, 10, 11, 12, 13, 14, 15, 16, 17, 18, 19, 20, 21, 22, 23, 24, 25, 26, 27, 28, 29, 30, 31, 32, 33, 34, 35, 36, 37, 38, 39, 40, 41, 42, 43, 44, 45, 46, 47, 48, 49, 50, 51, 52, 53, 54, 55, 56, 57, 58, 59, 60, 61, 62, 63, 64, 65, 66, 67, 68, 69, 70, 71, 72, 73, 74, 75, 76, 77, 78, 79, 80, 81, 82, 83, 84, 85, 86, 87, 88, 89, 90, 91, 92, 93, 94, 95, 96, 97, 98, 99, 100, 101, 102, 103, 104, 105, 106, 107, 108, 109, 110, 111, 112, 113, 114, 115, 116, 117, 118, 119, 120, 121, 122, 123, 124, 125, 126, 127, 128, 129, 130, 131, 132, 133, 134, 135, 136, 137, 138, 139, 140, 141, 142, 143, 144, 145, 146, 147, 148, 149, 150, 151, 152, 153, 154, 155, 156, 157, 158, 159, 160, 161, 162, 163, 164, 165, 166, 167, 168, 169, 170, 171, 172, 173, 174, 175, 176, 177, 178, 179, 180, 181, 182, 183, 184, 185, 186, 187, 188, 189, 190, 191, 192, 193, 194, 195, 196, 197, 198, 199, 200, 201, 202, 203, 204, 205, 206, 207, 208, 209, 210, 211, 212, 213, 214, 215, 216, 217, 218, 219, 220, 221, 222, 223, 224, 225, 226, 227, 228, 229, 230, 231, 232, 233, 234, 235, 236, 237, 238, 239, 240, 241, 242, 243, 244, 245, 246, 247, 248, 249, 250, 251, 252, 253, 254, 255, 256, 257, 258, 259, 260, 261, 262, 263, 264, 265, 266, 267, 268, 269, 270, 271, 272, 273, 274, 275],
      "AcquisitionTime": ["142838.905000", "142840.905000", "142842.905000", "142844.905000", "142846.905000", "142848.905000", "142850.905000", "142852.905000", "142854.905000", "142856.905000", "142858.905000", "142900.905000", "142902.905000", "142904.905000", "142906.905000", "142908.905000", "142910.905000", "142912.905000", "142914.905000", "142916.905000", "142918.905000", "142920.905000", "142922.905000", "142924.905000", "142926.905000", "142928.905000", "142930.905000", "142932.905000", "142934.905000", "142936.905000", "142938.905000", "142940.905000", "142942.905000", "142944.905000", "142946.905000", "142948.905000", "142950.905000", "142952.905000", "142954.905000", "142956.905000", "142958.905000", "143000.905000", "143002.905000", "143004.905000", "143006.905000", "143008.905000", "143010.905000", "143012.905000", "143014.905000", "143016.905000", "143018.905000", "143020.905000", "143022.905000", "143024.905000", "143026.905000", "143028.905000", "143030.905000", "143032.905000", "143034.905000", "143036.905000", "143038.905000", "143040.905000", "143042.905000", "143044.905000", "143046.905000", "143048.905000", "143050.905000", "143052.905000", "143054.905000", "143056.905000", "143058.905000", "143100.905000", "143102.905000", "143104.905000", "143106.905000", "143108.905000", "143110.905000", "143112.905000", "143114.905000", "143116.905000", "143118.905000", "143120.905000", "143122.905000", "143124.905000", "143126.905000", "143128.905000", "143130.905000", "143132.905000", "143134.905000", "143136.905000", "143138.905000", "143140.905000", "143142.905000", "143144.905000", "143146.905000", "143148.905000", "143150.905000", "143152.905000", "143154.905000", "143156.905000", "143158.905000", "143200.905000", "143202.905000", "143204.905000", "143206.905000", "143208.905000", "143210.905000", "143212.905000", "143214.905000", "143216.905000", "143218.905000", "143220.905000", "143222.905000", "143224.905000", "143226.905000", "143228.905000", "143230.905000", "143232.905000", "143234.905000", "143236.905000", "143238.905000", "143240.905000", "143242.905000", "143244.905000", "143246.905000", "143248.905000", "143250.905000", "143252.905000", "143254.905000", "143256.905000", "143258.905000", "143300.905000", "143302.905000", "143304.905000", "143306.905000", "143308.905000", "143310.905000", "143312.905000", "143314.905000", "143316.905000", "143318.905000", "143320.905000", "143322.905000", "143324.905000", "143326.905000", "143328.905000", "143330.905000", "143332.905000", "143334.905000", "143336.905000", "143338.905000", "143340.905000", "143342.905000", "143344.905000", "143346.905000", "143348.905000", "143350.905000", "143352.905000", "143354.905000", "143356.905000", "143358.905000", "143400.905000", "143402.905000", "143404.905000", "143406.905000", "143408.905000", "143410.905000", "143412.905000", "143414.905000", "143416.905000", "143418.905000", "143420.905000", "143422.905000", "143424.905000", "143426.905000", "143428.905000", "143430.905000", "143432.905000", "143434.905000", "143436.905000", "143438.905000", "143440.905000", "143442.905000", "143444.905000", "143446.905000", "143448.905000", "143450.905000", "143452.905000", "143454.905000", "143456.905000", "143458.905000", "143500.905000", "143502.905000", "143504.905000", "143506.905000", "143508.905000", "143510.905000", "143512.905000", "143514.905000", "143516.905000", "143518.905000", "143520.905000", "143522.905000", "143524.905000", "143526.905000", "143528.905000", "143530.905000", "143532.905000", "143534.905000", "143536.905000", "143538.905000", "143540.905000", "143542.905000", "143544.905000", "143546.905000", "143548.905000", "143550.905000", "143552.905000", "143554.905000", "143556.905000", "143558.905000", "143600.905000", "143602.905000", "143604.905000", "143606.905000", "143608.905000", "143610.905000", "143612.905000", "143614.905000", "143616.905000", "143618.905000", "143620.905000", "143622.905000", "143624.905000", "143626.905000", "143628.905000", "143630.905000", "143632.905000", "143634.905000", "143636.905000", "143638.905000", "143640.905000", "143642.905000", "143644.905000", "143646.905000", "143648.905000", "143650.905000", "143652.905000", "143654.905000", "143656.905000", "143658.905000", "143700.905000", "143702.905000", "143704.905000", "143706.905000", "143708.905000", "143710.905000", "143712.905000", "143714.905000", "143716.905000", "143718.905000", "143720.905000", "143722.905000", "143724.905000", "143726.905000", "143728.905000", "143730.905000", "143732.905000", "143734.905000", "143736.905000", "143738.905000", "143740.905000", "143742.905000", "143744.905000", "143746.905000"],
      "ContentTime": ["142841.881000", "142843.877000", "142845.877000", "142847.877000", "142849.877000", "142851.877000", "142853.877000", "142855.877000", "142857.877000", "142859.877000", "142901.877000", "142903.877000", "142905.877000", "142907.877000", "142909.877000", "142911.877000", "142913.877000", "142915.877000", "142917.877000", "142919.877000", "142921.877000", "142923.877000", "142925.877000", "142927.877000", "142929.877000", "142931.877000", "142933.877000", "142935.877000", "142937.877000", "142939.877000", "142941.877000", "142943.876000", "142945.877000", "142947.877000", "142949.877000", "142951.877000", "142953.877000", "142955.877000", "142957.877000", "142959.877000", "143001.877000", "143003.877000", "143005.877000", "143007.877000", "143009.877000", "143011.877000", "143013.877000", "143015.877000", "143017.877000", "143019.877000", "143021.877000", "143023.877000", "143025.877000", "143027.877000", "143029.877000", "143031.877000", "143033.877000", "143035.877000", "143037.877000", "143039.877000", "143041.877000", "143043.877000", "143045.877000", "143047.877000", "143049.877000", "143051.877000", "143053.876000", "143055.877000", "143057.877000", "143059.877000", "143101.877000", "143103.877000", "143105.877000", "143107.877000", "143109.877000", "143111.877000", "143113.877000", "143115.877000", "143117.877000", "143119.877000", "143121.877000", "143123.877000", "143125.877000", "143127.877000", "143129.877000", "143131.877000", "143133.877000", "143135.877000", "143137.877000", "143139.877000", "143141.877000", "143143.877000", "143145.877000", "143147.877000", "143149.877000", "143151.877000", "143153.877000", "143155.877000", "143157.877000", "143159.877000", "143201.877000", "143203.876000", "143205.877000", "143207.877000", "143209.877000", "143211.877000", "143213.877000", "143215.877000", "143217.877000", "143219.877000", "143221.877000", "143223.877000", "143225.877000", "143227.888000", "143229.877000", "143231.877000", "143233.877000", "143235.877000", "143237.877000", "143239.877000", "143241.877000", "143243.877000", "143245.877000", "143247.877000", "143249.877000", "143251.877000", "143253.877000", "143255.877000", "143257.877000", "143259.877000", "143301.877000", "143303.877000", "143305.877000", "143307.877000", "143309.877000", "143311.877000", "143313.876000", "143315.877000", "143317.877000", "143319.877000", "143321.877000", "143323.877000", "143325.877000", "143327.877000", "143329.877000", "143331.877000", "143333.877000", "143335.877000", "143337.877000", "143339.877000", "143341.877000", "143343.877000", "143345.877000", "143347.877000", "143349.877000", "143351.877000", "143353.877000", "143355.877000", "143357.877000", "143359.877000", "143401.877000", "143403.877000", "143405.877000", "143407.877000", "143409.877000", "143411.877000", "143413.877000", "143415.877000", "143417.877000", "143419.877000", "143421.877000", "143423.876000", "143425.877000", "143427.877000", "143429.877000", "143431.877000", "143433.877000", "143435.877000", "143437.877000", "143439.877000", "143441.877000", "143443.877000", "143445.877000", "143447.877000", "143449.877000", "143451.877000", "143453.877000", "143455.877000", "143457.877000", "143459.877000", "143501.877000", "143503.877000", "143505.877000", "143507.877000", "143509.877000", "143511.877000", "143513.877000", "143515.877000", "143517.877000", "143519.877000", "143521.877000", "143523.877000", "143525.877000", "143527.877000", "143529.877000", "143531.877000", "143533.876000", "143535.877000", "143537.877000", "143539.877000", "143541.877000", "143543.877000", "143545.877000", "143547.877000", "143549.877000", "143551.877000", "143553.877000", "143555.877000", "143557.877000", "143559.877000", "143601.877000", "143603.877000", "143605.877000", "143607.877000", "143609.877000", "143611.877000", "143613.877000", "143615.877000", "143617.877000", "143619.877000", "143621.877000", "143623.877000", "143625.877000", "143627.877000", "143629.877000", "143631.877000", "143633.877000", "143635.877000", "143637.877000", "143639.877000", "143641.877000", "143643.877000", "143645.877000", "143647.877000", "143649.877000", "143651.877000", "143653.877000", "143655.877000", "143657.877000", "143659.877000", "143701.877000", "143703.877000", "143705.877000", "143707.877000", "143709.877000", "143711.877000", "143713.877000", "143715.877000", "143717.877000", "143719.877000", "143721.877000", "143723.877000", "143725.877000", "143727.877000", "143729.877000", "143731.877000", "143733.877000", "143735.876000", "143737.877000", "143739.877000", "143741.877000", "143743.877000", "143745.877000", "143747.877000", "143749.582000"],
      "InstanceCreationTime": ["142841.881000", "142843.877000", "142845.877000", "142847.877000", "142849.877000", "142851.877000", "142853.877000", "142855.877000", "142857.877000", "142859.877000", "142901.877000", "142903.877000", "142905.877000", "142907.877000", "142909.877000", "142911.877000", "142913.877000", "142915.877000", "142917.877000", "142919.877000", "142921.877000", "142923.877000", "142925.877000", "142927.877000", "142929.877000", "142931.877000", "142933.877000", "142935.877000", "142937.877000", "142939.877000", "142941.877000", "142943.876000", "142945.877000", "142947.877000", "142949.877000", "142951.877000", "142953.877000", "142955.877000", "142957.877000", "142959.877000", "143001.877000", "143003.877000", "143005.877000", "143007.877000", "143009.877000", "143011.877000", "143013.877000", "143015.877000", "143017.877000", "143019.877000", "143021.877000", "143023.877000", "143025.877000", "143027.877000", "143029.877000", "143031.877000", "143033.877000", "143035.877000", "143037.877000", "143039.877000", "143041.877000", "143043.877000", "143045.877000", "143047.877000", "143049.877000", "143051.877000", "143053.876000", "143055.877000", "143057.877000", "143059.877000", "143101.877000", "143103.877000", "143105.877000", "143107.877000", "143109.877000", "143111.877000", "143113.877000", "143115.877000", "143117.877000", "143119.877000", "143121.877000", "143123.877000", "143125.877000", "143127.877000", "143129.877000", "143131.877000", "143133.877000", "143135.877000", "143137.877000", "143139.877000", "143141.877000", "143143.877000", "143145.877000", "143147.877000", "143149.877000", "143151.877000", "143153.877000", "143155.877000", "143157.877000", "143159.877000", "143201.877000", "143203.876000", "143205.877000", "143207.877000", "143209.877000", "143211.877000", "143213.877000", "143215.877000", "143217.877000", "143219.877000", "143221.877000", "143223.877000", "143225.877000", "143227.888000", "143229.877000", "143231.877000", "143233.877000", "143235.877000", "143237.877000", "143239.877000", "143241.877000", "143243.877000", "143245.877000", "143247.877000", "143249.877000", "143251.877000", "143253.877000", "143255.877000", "143257.877000", "143259.877000", "143301.877000", "143303.877000", "143305.877000", "143307.877000", "143309.877000", "143311.877000", "143313.876000", "143315.877000", "143317.877000", "143319.877000", "143321.877000", "143323.877000", "143325.877000", "143327.877000", "143329.877000", "143331.877000", "143333.877000", "143335.877000", "143337.877000", "143339.877000", "143341.877000", "143343.877000", "143345.877000", "143347.877000", "143349.877000", "143351.877000", "143353.877000", "143355.877000", "143357.877000", "143359.877000", "143401.877000", "143403.877000", "143405.877000", "143407.877000", "143409.877000", "143411.877000", "143413.877000", "143415.877000", "143417.877000", "143419.877000", "143421.877000", "143423.876000", "143425.877000", "143427.877000", "143429.877000", "143431.877000", "143433.877000", "143435.877000", "143437.877000", "143439.877000", "143441.877000", "143443.877000", "143445.877000", "143447.877000", "143449.877000", "143451.877000", "143453.877000", "143455.877000", "143457.877000", "143459.877000", "143501.877000", "143503.877000", "143505.877000", "143507.877000", "143509.877000", "143511.877000", "143513.877000", "143515.877000", "143517.877000", "143519.877000", "143521.877000", "143523.877000", "143525.877000", "143527.877000", "143529.877000", "143531.877000", "143533.876000", "143535.877000", "143537.877000", "143539.877000", "143541.877000", "143543.877000", "143545.877000", "143547.877000", "143549.877000", "143551.877000", "143553.877000", "143555.877000", "143557.877000", "143559.877000", "143601.877000", "143603.877000", "143605.877000", "143607.877000", "143609.877000", "143611.877000", "143613.877000", "143615.877000", "143617.877000", "143619.877000", "143621.877000", "143623.877000", "143625.877000", "143627.877000", "143629.877000", "143631.877000", "143633.877000", "143635.877000", "143637.877000", "143639.877000", "143641.877000", "143643.877000", "143645.877000", "143647.877000", "143649.877000", "143651.877000", "143653.877000", "143655.877000", "143657.877000", "143659.877000", "143701.877000", "143703.877000", "143705.877000", "143707.877000", "143709.877000", "143711.877000", "143713.877000", "143715.877000", "143717.877000", "143719.877000", "143721.877000", "143723.877000", "143725.877000", "143727.877000", "143729.877000", "143731.877000", "143733.877000", "143735.876000", "143737.877000", "143739.877000", "143741.877000", "143743.877000", "143745.877000", "143747.877000", "143749.582000"],
      "InstanceNumber": [1, 2, 3, 4, 5, 6, 7, 8, 9, 10, 11, 12, 13, 14, 15, 16, 17, 18, 19, 20, 21, 22, 23, 24, 25, 26, 27, 28, 29, 30, 31, 32, 33, 34, 35, 36, 37, 38, 39, 40, 41, 42, 43, 44, 45, 46, 47, 48, 49, 50, 51, 52, 53, 54, 55, 56, 57, 58, 59, 60, 61, 62, 63, 64, 65, 66, 67, 68, 69, 70, 71, 72, 73, 74, 75, 76, 77, 78, 79, 80, 81, 82, 83, 84, 85, 86, 87, 88, 89, 90, 91, 92, 93, 94, 95, 96, 97, 98, 99, 100, 101, 102, 103, 104, 105, 106, 107, 108, 109, 110, 111, 112, 113, 114, 115, 116, 117, 118, 119, 120, 121, 122, 123, 124, 125, 126, 127, 128, 129, 130, 131, 132, 133, 134, 135, 136, 137, 138, 139, 140, 141, 142, 143, 144, 145, 146, 147, 148, 149, 150, 151, 152, 153, 154, 155, 156, 157, 158, 159, 160, 161, 162, 163, 164, 165, 166, 167, 168, 169, 170, 171, 172, 173, 174, 175, 176, 177, 178, 179, 180, 181, 182, 183, 184, 185, 186, 187, 188, 189, 190, 191, 192, 193, 194, 195, 196, 197, 198, 199, 200, 201, 202, 203, 204, 205, 206, 207, 208, 209, 210, 211, 212, 213, 214, 215, 216, 217, 218, 219, 220, 221, 222, 223, 224, 225, 226, 227, 228, 229, 230, 231, 232, 233, 234, 235, 236, 237, 238, 239, 240, 241, 242, 243, 244, 245, 246, 247, 248, 249, 250, 251, 252, 253, 254, 255, 256, 257, 258, 259, 260, 261, 262, 263, 264, 265, 266, 267, 268, 269, 270, 271, 272, 273, 274, 275],
      "LargestImagePixelValue": [1689, 1480, 1464, 1482, 1515, 1481, 1499, 1493, 1505, 1498, 1510, 1514, 1504, 1496, 1500, 1517, 1505, 1480, 1505, 1494, 1488, 1506, 1520, 1497, 1516, 1500, 1501, 1505, 1491, 1506, 1525, 1494, 1483, 1509, 1511, 1502, 1503, 1529, 1507, 1503, 1505, 1506, 1514, 1520, 1504, 1500, 1493, 1521, 1545, 1505, 1849, 1499, 1508, 1538, 1513, 1503, 1511, 1525, 1515, 1499, 1509, 1501, 1541, 1513, 1493, 1507, 1498, 1499, 1505, 1526, 1509, 1500, 1525, 1501, 1501, 1526, 1515, 1500, 1520, 1521, 1512, 1498, 1506, 1504, 1499, 1502, 1519, 1517, 1513, 1511, 1495, 1534, 1517, 1827, 1500, 1505, 1496, 1497, 1503, 1520, 1503, 1498, 1508, 1499, 1521, 1513, 1518, 1512, 1510, 1507, 1513, 1494, 1503, 1510, 1516, 1501, 1509, 1503, 1509, 1516, 1493, 1516, 1513, 1506, 1511, 1513, 1513, 1511, 1506, 1507, 1517, 1503, 1503, 1511, 1497, 1524, 1518, 1507, 1499, 1500, 1528, 1507, 1500, 1531, 1511, 1508, 1515, 1496, 1517, 1511, 1519, 1503, 1504, 1508, 1501, 1511, 1488, 1501, 1734, 1496, 1512, 1502, 1499, 1486, 1511, 1521, 1502, 1500, 1501, 1502, 1506, 1514, 1527, 1534, 1520, 1495, 1500, 1495, 1543, 1493, 1903, 1930, 1487, 1500, 1524, 1495, 1492, 1616, 1494, 1482, 1496, 1507, 1495, 1505, 1498, 1513, 1512, 1522, 1532, 1501, 1511, 1492, 1502, 1514, 1515, 1511, 1510, 1488, 1492, 1501, 1507, 1480, 1492, 1487, 1499, 1516, 1502, 1490, 1521, 1505, 1499, 1543, 1493, 1491, 1497, 1503, 1510, 1503, 1501, 1509, 1501, 1719, 1590, 1507, 1494, 1489, 1505, 1505, 1515, 1514, 1500, 1502, 1494, 1490, 1492, 1504, 1505, 1488, 1486, 1491, 1504, 1507, 1510, 1501, 1501, 1505, 1500, 1498, 1508, 1502, 1500, 1484, 1494, 1503, 1510, 1492, 1526, 1490, 1506, 1491, 1497, 1511, 1505, 1493, 1519],
      "WindowCenter": [663.0, 659.0, 658.0, 659.0, 659.0, 658.0, 658.0, 659.0, 659.0, 660.0, 660.0, 659.0, 659.0, 661.0, 661.0, 661.0, 660.0, 659.0, 660.0, 660.0, 660.0, 660.0, 661.0, 660.0, 661.0, 660.0, 660.0, 660.0, 659.0, 658.0, 658.0, 658.0, 659.0, 659.0, 659.0, 659.0, 659.0, 659.0, 660.0, 659.0, 659.0, 659.0, 660.0, 660.0, 659.0, 659.0, 660.0, 660.0, 660.0, 661.0, 662.0, 660.0, 660.0, 660.0, 659.0, 659.0, 659.0, 658.0, 658.0, 657.0, 657.0, 658.0, 660.0, 659.0, 660.0, 659.0, 659.0, 659.0, 662.0, 661.0, 659.0, 658.0, 657.0, 656.0, 656.0, 657.0, 658.0, 658.0, 659.0, 658.0, 658.0, 658.0, 658.0, 658.0, 659.0, 660.0, 661.0, 661.0, 660.0, 660.0, 660.0, 661.0, 660.0, 661.0, 657.0, 657.0, 657.0, 657.0, 657.0, 658.0, 658.0, 658.0, 658.0, 658.0, 658.0, 657.0, 658.0, 659.0, 660.0, 660.0, 660.0, 660.0, 661.0, 660.0, 658.0, 658.0, 659.0, 659.0, 660.0, 659.0, 659.0, 660.0, 659.0, 659.0, 659.0, 659.0, 659.0, 659.0, 659.0, 659.0, 660.0, 661.0, 660.0, 659.0, 660.0, 661.0, 662.0, 659.0, 657.0, 657.0, 658.0, 658.0, 658.0, 659.0, 658.0, 658.0, 659.0, 659.0, 658.0, 658.0, 659.0, 659.0, 658.0, 659.0, 660.0, 660.0, 661.0, 660.0, 662.0, 660.0, 660.0, 659.0, 659.0, 657.0, 658.0, 658.0, 658.0, 658.0, 659.0, 659.0, 659.0, 660.0, 660.0, 660.0, 660.0, 660.0, 661.0, 661.0, 662.0, 662.0, 662.0, 660.0, 658.0, 659.0, 659.0, 659.0, 659.0, 659.0, 658.0, 657.0, 657.0, 658.0, 658.0, 658.0, 659.0, 660.0, 660.0, 659.0, 660.0, 660.0, 660.0, 660.0, 660.0, 659.0, 660.0, 660.0, 659.0, 658.0, 657.0, 658.0, 659.0, 659.0, 659.0, 658.0, 659.0, 661.0, 660.0, 660.0, 662.0, 661.0, 659.0, 659.0, 658.0, 658.0, 659.0, 661.0, 660.0, 660.0, 660.0, 661.0, 661.0, 662.0, 659.0, 658.0, 659.0, 659.0, 659.0, 659.0, 660.0, 661.0, 660.0, 659.0, 660.0, 660.0, 661.0, 660.0, 659.0, 660.0, 660.0, 659.0, 658.0, 659.0, 660.0, 659.0, 659.0, 659.0, 660.0, 660.0, 660.0, 661.0, 661.0, 660.0, 660.0, 660.0, 661.0, 661.0, 662.0, 663.0, 662.0, 659.0, 658.0, 658.0, 659.0, 659.0, 660.0],
      "WindowWidth": [1426.0, 1416.0, 1415.0, 1416.0, 1415.0, 1413.0, 1414.0, 1416.0, 1417.0, 1420.0, 1418.0, 1417.0, 1417.0, 1422.0, 1421.0, 1420.0, 1418.0, 1417.0, 1420.0, 1420.0, 1420.0, 1420.0, 1421.0, 1419.0, 1422.0, 1420.0, 1420.0, 1420.0, 1416.0, 1413.0, 1413.0, 1414.0, 1415.0, 1415.0, 1415.0, 1417.0, 1417.0, 1417.0, 1418.0, 1417.0, 1416.0, 1417.0, 1419.0, 1419.0, 1416.0, 1416.0, 1418.0, 1419.0, 1417.0, 1422.0, 1424.0, 1417.0, 1419.0, 1419.0, 1417.0, 1416.0, 1416.0, 1414.0, 1412.0, 1412.0, 1411.0, 1414.0, 1418.0, 1417.0, 1418.0, 1417.0, 1415.0, 1416.0, 1423.0, 1421.0, 1417.0, 1414.0, 1411.0, 1409.0, 1409.0, 1410.0, 1412.0, 1413.0, 1415.0, 1414.0, 1414.0, 1413.0, 1413.0, 1414.0, 1416.0, 1419.0, 1422.0, 1421.0, 1419.0, 1418.0, 1419.0, 1421.0, 1419.0, 1420.0, 1411.0, 1411.0, 1412.0, 1410.0, 1410.0, 1414.0, 1413.0, 1413.0, 1413.0, 1413.0, 1413.0, 1412.0, 1413.0, 1417.0, 1419.0, 1418.0, 1417.0, 1418.0, 1420.0, 1417.0, 1414.0, 1414.0, 1415.0, 1416.0, 1418.0, 1416.0, 1416.0, 1418.0, 1417.0, 1416.0, 1417.0, 1417.0, 1415.0, 1417.0, 1416.0, 1415.0, 1418.0, 1420.0, 1418.0, 1417.0, 1419.0, 1422.0, 1423.0, 1415.0, 1411.0, 1412.0, 1412.0, 1412.0, 1412.0, 1416.0, 1412.0, 1413.0, 1415.0, 1415.0, 1413.0, 1413.0, 1415.0, 1416.0, 1414.0, 1414.0, 1418.0, 1418.0, 1420.0, 1419.0, 1422.0, 1417.0, 1417.0, 1417.0, 1415.0, 1411.0, 1412.0, 1414.0, 1413.0, 1414.0, 1415.0, 1414.0, 1415.0, 1419.0, 1419.0, 1418.0, 1418.0, 1419.0, 1421.0, 1420.0, 1423.0, 1424.0, 1423.0, 1418.0, 1413.0, 1415.0, 1417.0, 1415.0, 1416.0, 1417.0, 1413.0, 1411.0, 1411.0, 1412.0, 1414.0, 1414.0, 1415.0, 1418.0, 1417.0, 1416.0, 1417.0, 1418.0, 1419.0, 1419.0, 1418.0, 1414.0, 1418.0, 1418.0, 1416.0, 1413.0, 1411.0, 1413.0, 1414.0, 1415.0, 1414.0, 1414.0, 1417.0, 1420.0, 1418.0, 1417.0, 1422.0, 1420.0, 1416.0, 1415.0, 1414.0, 1414.0, 1416.0, 1420.0, 1419.0, 1417.0, 1418.0, 1421.0, 1421.0, 1422.0, 1416.0, 1412.0, 1415.0, 1417.0, 1417.0, 1416.0, 1419.0, 1421.0, 1419.0, 1416.0, 1417.0, 1419.0, 1420.0, 1418.0, 1417.0, 1418.0, 1417.0, 1415.0, 1413.0, 1416.0, 1417.0, 1416.0, 1416.0, 1417.0, 1418.0, 1418.0, 1418.0, 1420.0, 1421.0, 1419.0, 1419.0, 1418.0, 1420.0, 1420.0, 1424.0, 1426.0, 1423.0, 1415.0, 1414.0, 1414.0, 1414.0, 1414.0, 1417.0]
    },
    "slices": {}
  }
}