{
  "AcquisitionMatrixPE": 64,
  "AcquisitionNumber": 1,
  "AcquisitionTime": "14:40:46.122500",
  "BandwidthPerPixelPhaseEncode": 31.888,
  "BaseResolution": 64,
  "BodyPartExamined": "HEAD",
  "CoilCombinationMethod": "Sum of Squares",
  "ConsistencyInfo": "N4_VE11C_LATEST_20160120",
  "ConversionSoftware": "dcm2niix",
  "ConversionSoftwareVersion": "v1.0.20211006",
  "DerivedVendorReportedEchoSpacing": 0.000489996,
  "DeviceSerialNumber": "167048",
  "EchoTime": 0.03,
  "EchoTrainLength": 64,
  "EffectiveEchoSpacing": 0.000489996,
  "FlipAngle": 90,
  "ImageOrientationPatientDICOM": [0.999116, 0.0159835, -0.0388849, -0.0174396, 0.999148, -0.0374018],
  "ImageType": [
    "ORIGINAL",
    "PRIMARY",
    "M",
    "ND",
    "NORM",
    "MOSAIC"
],
  "ImagingFrequency": 123.261,
  "InPlanePhaseEncodingDirectionDICOM": "COL",
  "InstitutionAddress": "Azinhaga Santa Comba StreetNo,Coimbra,District,PT,3000",
  "InstitutionName": "ICNAS",
  "MRAcquisitionType": "2D",
  "MagneticFieldStrength": 3,
  "Manufacturer": "Siemens",
  "ManufacturersModelName": "Prisma_fit",
  "MatrixCoilMode": "SENSE",
  "Modality": "MR",
  "PartialFourier": 1,
  "PatientPosition": "HFS",
  "PercentPhaseFOV": 100,
  "PercentSampling": 100,
  "PhaseEncodingDirection": "j-",
  "PhaseEncodingSteps": 64,
  "PhaseResolution": 1,
  "PixelBandwidth": 2365,
  "ProcedureStepDescription": "RM_FUNCIONAL",
  "ProtocolName": "rtfmri_neurofeedback_MTLoc",
  "PulseSequenceDetails": "%SiemensSeq%\\ep2d_bold",
  "ReceiveCoilActiveElements": "HE1-4",
  "ReceiveCoilName": "HeadNeck_20",
  "ReconMatrixPE": 64,
  "RepetitionTime": 2,
  "SAR": 0.103305,
  "ScanOptions": "FS",
  "ScanningSequence": "EP",
  "SequenceName": "*epfid2d1_64",
  "SequenceVariant": "SK",
  "SeriesDescription": "rtfmri_neurofeedback_MTLoc",
  "SeriesNumber": 3,
  "ShimSetting": [10172, 2130, 8366, 407, 62, -82, 36, -51],
  "SliceThickness": 3,
  "SliceTiming": [0, 1.02, 0.06, 1.08, 0.12, 1.14, 0.18, 1.2, 0.24, 1.26, 0.3, 1.32, 0.36, 1.38, 0.42, 1.44, 0.48, 1.5, 0.54, 1.56, 0.6, 1.62, 0.66, 1.68, 0.72, 1.74, 0.78, 1.8, 0.84, 1.86, 0.9, 1.92, 0.96],
  "SoftwareVersions": "syngo MR E11",
  "SpacingBetweenSlices": 3,
  "StationName": "MRC35377",
  "TaskName": "loc",
  "TotalReadoutTime": 0.0308698,
  "TxRefAmp": 260.541,
  "dcmmeta_affine": [
    [-3.9964640140533447, -0.06975840032100677, -0.11476187407970428, 124.42488098144531],
    [-0.06393399834632874, 3.9965920448303223, -0.11414062231779099, -105.02245330810547],
    [-0.1555396020412445, 0.14960719645023346, 2.9956305027008057, -34.36064147949219],
    [0.0, 0.0, 0.0, 1.0]
],
  "dcmmeta_reorient_transform": [
    [0.0, -1.0, 0.0, 63.0],
    [1.0, 0.0, 0.0, 0.0],
    [0.0, 0.0, 1.0, 0.0],
    [0.0, 0.0, 0.0, 1.0]
],
  "dcmmeta_shape": [64, 64, 33, 200],
  "dcmmeta_slice_dim": 2,
  "dcmmeta_version": 0.6,
  "global": {
    "const": {
      "AccessionNumber": "0",
      "AcquisitionMatrix": [64, 0, 0, 64],
      "AngioFlag": "N",
      "BitsAllocated": 16,
      "BitsStored": 12,
      "BodyPartExamined": "HEAD",
      "Columns": 384,
      "EchoNumbers": 1,
      "EchoTime": 30.0,
      "EchoTrainLength": 64,
      "FlipAngle": 90.0,
      "HighBit": 11,
      "ImageOrientationPatient": [0.999116, 0.0159835, -0.0388849, -0.0174396, 0.999148, -0.0374018],
      "ImagePositionPatient": [-748.303, -796.447, 23.8881],
      "ImageType": [
        "ORIGINAL",
        "PRIMARY",
        "M",
        "ND",
        "NORM",
        "MOSAIC"
],
      "ImagedNucleus": "1H",
      "ImagingFrequency": 123.261,
      "InPlanePhaseEncodingDirection": "COL",
      "MRAcquisitionType": "2D",
      "MagneticFieldStrength": 3.0,
      "Manufacturer": "SIEMENS",
      "ManufacturerModelName": "Prisma_fit",
      "Modality": "MR",
      "NumberOfAverages": 1.0,
      "NumberOfFrames": 1,
      "NumberOfPhaseEncodingSteps": 64,
      "PercentPhaseFieldOfView": 100.0,
      "PercentSampling": 100.0,
      "PerformedProcedureStepStartTime": "142751.045000",
      "PhotometricInterpretation": "MONOCHROME2",
      "PixelBandwidth": 2365.0,
      "PixelRepresentation": 0,
      "PixelSpacing": [4.0, 4.0],
      "ProtocolName": "rtfmri_neurofeedback_MTLoc",
      "RepetitionTime": 2000.0,
      "RequestAttributesSequence": [
        {
          "RequestedProcedureID": "1301",
          "ScheduledProcedureStepDescription": "RM_FUNCIONAL",
          "ScheduledProcedureStepID": "1"}
],
      "Rows": 384,
      "SAR": 0.103305,
      "SamplesPerPixel": 1,
      "ScanOptions": "FS",
      "ScanningSequence": "EP",
      "SequenceName": "*epfid2d1_64",
      "SequenceVariant": "SK",
      "SeriesDescription": "rtfmri_neurofeedback_MTLoc",
      "SeriesNumber": 3,
      "SeriesTime": "144048.805000",
      "SliceLocation": -35.0745,
      "SliceThickness": 3.0,
      "SmallestImagePixelValue": 0,
      "SoftwareVersions": "syngo MR E11",
      "SpacingBetweenSlices": 3.0,
      "SpecificCharacterSet": "ISO_IR 100",
      "StudyID": "1301",
      "StudyTime": "142749.391000",
      "TransmitCoilName": "Body",
      "VariableFlipAngleFlag": "N",
      "WindowCenterWidthExplanation": "Algo1",
      "dBdt": 0.0},
    "slices": {}
  },
  "time": {
    "samples": {
      "AcquisitionNumber": [1, 2, 3, 4, 5, 6, 7, 8, 9, 10, 11, 12, 13, 14, 15, 16, 17, 18, 19, 20, 21, 22, 23, 24, 25, 26, 27, 28, 29, 30, 31, 32, 33, 34, 35, 36, 37, 38, 39, 40, 41, 42, 43, 44, 45, 46, 47, 48, 49, 50, 51, 52, 53, 54, 55, 56, 57, 58, 59, 60, 61, 62, 63, 64, 65, 66, 67, 68, 69, 70, 71, 72, 73, 74, 75, 76, 77, 78, 79, 80, 81, 82, 83, 84, 85, 86, 87, 88, 89, 90, 91, 92, 93, 94, 95, 96, 97, 98, 99, 100, 101, 102, 103, 104, 105, 106, 107, 108, 109, 110, 111, 112, 113, 114, 115, 116, 117, 118, 119, 120, 121, 122, 123, 124, 125, 126, 127, 128, 129, 130, 131, 132, 133, 134, 135, 136, 137, 138, 139, 140, 141, 142, 143, 144, 145, 146, 147, 148, 149, 150, 151, 152, 153, 154, 155, 156, 157, 158, 159, 160, 161, 162, 163, 164, 165, 166, 167, 168, 169, 170, 171, 172, 173, 174, 175, 176, 177, 178, 179, 180, 181, 182, 183, 184, 185, 186, 187, 188, 189, 190, 191, 192, 193, 194, 195, 196, 197, 198, 199, 200],
      "AcquisitionTime": ["144046.122500", "144048.122500", "144050.122500", "144052.122500", "144054.122500", "144056.122500", "144058.122500", "144100.122500", "144102.122500", "144104.122500", "144106.122500", "144108.122500", "144110.122500", "144112.122500", "144114.122500", "144116.122500", "144118.122500", "144120.122500", "144122.122500", "144124.122500", "144126.122500", "144128.122500", "144130.122500", "144132.122500", "144134.122500", "144136.122500", "144138.122500", "144140.122500", "144142.122500", "144144.122500", "144146.122500", "144148.122500", "144150.122500", "144152.122500", "144154.122500", "144156.122500", "144158.122500", "144200.122500", "144202.122500", "144204.122500", "144206.122500", "144208.122500", "144210.122500", "144212.122500", "144214.122500", "144216.122500", "144218.122500", "144220.122500", "144222.122500", "144224.122500", "144226.122500", "144228.122500", "144230.122500", "144232.122500", "144234.122500", "144236.122500", "144238.122500", "144240.122500", "144242.122500", "144244.122500", "144246.122500", "144248.122500", "144250.122500", "144252.122500", "144254.122500", "144256.122500", "144258.122500", "144300.122500", "144302.122500", "144304.122500", "144306.122500", "144308.122500", "144310.122500", "144312.122500", "144314.122500", "144316.122500", "144318.122500", "144320.122500", "144322.122500", "144324.122500", "144326.122500", "144328.122500", "144330.122500", "144332.122500", "144334.122500", "144336.122500", "144338.122500", "144340.122500", "144342.122500", "144344.122500", "144346.122500", "144348.122500", "144350.122500", "144352.122500", "144354.122500", "144356.122500", "144358.122500", "144400.122500", "144402.122500", "144404.122500", "144406.122500", "144408.122500", "144410.122500", "144412.122500", "144414.122500", "144416.122500", "144418.122500", "144420.122500", "144422.122500", "144424.122500", "144426.122500", "144428.122500", "144430.122500", "144432.122500", "144434.122500", "144436.122500", "144438.122500", "144440.122500", "144442.122500", "144444.122500", "144446.122500", "144448.122500", "144450.122500", "144452.122500", "144454.122500", "144456.122500", "144458.122500", "144500.122500", "144502.122500", "144504.122500", "144506.122500", "144508.122500", "144510.122500", "144512.122500", "144514.122500", "144516.122500", "144518.122500", "144520.122500", "144522.122500", "144524.122500", "144526.122500", "144528.122500", "144530.122500", "144532.122500", "144534.122500", "144536.122500", "144538.122500", "144540.122500", "144542.122500", "144544.122500", "144546.122500", "144548.122500", "144550.122500", "144552.122500", "144554.122500", "144556.122500", "144558.122500", "144600.122500", "144602.122500", "144604.122500", "144606.122500", "144608.122500", "144610.122500", "144612.122500", "144614.122500", "144616.122500", "144618.122500", "144620.122500", "144622.122500", "144624.122500", "144626.122500", "144628.122500", "144630.122500", "144632.122500", "144634.122500", "144636.122500", "144638.122500", "144640.122500", "144642.122500", "144644.122500", "144646.122500", "144648.122500", "144650.122500", "144652.122500", "144654.122500", "144656.122500", "144658.122500", "144700.122500", "144702.122500", "144704.122500", "144706.122500", "144708.122500", "144710.122500", "144712.122500", "144714.122500", "144716.122500", "144718.122500", "144720.122500", "144722.122500", "144724.122500"],
      "ContentTime": ["144048.808000", "144050.803000", "144052.804000", "144054.804000", "144056.804000", "144058.803000", "144100.803000", "144102.803000", "144104.803000", "144106.803000", "144108.804000", "144110.804000", "144112.804000", "144114.804000", "144116.803000", "144118.803000", "144120.803000", "144122.803000", "144124.817000", "144126.804000", "144128.804000", "144130.804000", "144132.804000", "144134.803000", "144136.803000", "144138.803000", "144140.803000", "144142.803000", "144144.804000", "144146.804000", "144148.804000", "144150.803000", "144152.803000", "144154.803000", "144156.803000", "144158.803000", "144200.803000", "144202.804000", "144204.804000", "144206.804000", "144208.803000", "144210.803000", "144212.803000", "144214.803000", "144216.803000", "144218.804000", "144220.804000", "144222.804000", "144224.804000", "144226.803000", "144228.803000", "144230.803000", "144232.803000", "144234.803000", "144236.804000", "144238.804000", "144240.804000", "144242.804000", "144244.803000", "144246.803000", "144248.803000", "144250.803000", "144252.803000", "144254.804000", "144256.804000", "144258.804000", "144300.803000", "144302.803000", "144304.803000", "144306.803000", "144308.803000", "144310.804000", "144312.804000", "144314.804000", "144316.804000", "144318.803000", "144320.803000", "144322.803000", "144324.803000", "144326.803000", "144328.804000", "144330.804000", "144332.804000", "144334.804000", "144336.803000", "144338.803000", "144340.803000", "144342.803000", "144344.803000", "144346.804000", "144348.804000", "144350.804000", "144352.804000", "144354.803000", "144356.803000", "144358.803000", "144400.803000", "144402.803000", "144404.804000", "144406.804000", "144408.804000", "144410.803000", "144412.803000", "144414.803000", "144416.803000", "144418.803000", "144420.804000", "144422.804000", "144424.804000", "144426.804000", "144428.803000", "144430.803000", "144432.803000", "144434.803000", "144436.803000", "144438.804000", "144440.804000", "144442.804000", "144444.804000", "144446.803000", "144448.803000", "144450.803000", "144452.803000", "144454.803000", "144456.804000", "144458.804000", "144500.804000", "144502.804000", "144504.803000", "144506.803000", "144508.803000", "144510.803000", "144512.803000", "144514.804000", "144516.804000", "144518.804000", "144520.803000", "144522.803000", "144524.803000", "144526.803000", "144528.803000", "144530.804000", "144532.804000", "144534.804000", "144536.804000", "144538.803000", "144540.810000", "144542.803000", "144544.803000", "144546.803000", "144548.804000", "144550.804000", "144552.804000", "144554.804000", "144556.803000", "144558.803000", "144600.803000", "144602.803000", "144604.803000", "144606.804000", "144608.804000", "144610.804000", "144612.804000", "144614.803000", "144616.803000", "144618.803000", "144620.803000", "144622.803000", "144624.804000", "144626.804000", "144628.804000", "144630.803000", "144632.803000", "144634.803000", "144636.803000", "144638.803000", "144640.804000", "144642.804000", "144644.804000", "144646.804000", "144648.803000", "144650.803000", "144652.803000", "144654.803000", "144656.803000", "144658.804000", "144700.804000", "144702.804000", "144704.804000", "144706.803000", "144708.803000", "144710.803000", "144712.803000", "144714.803000", "144716.804000", "144718.804000", "144720.804000", "144722.804000", "144724.803000", "144726.547000"],
      "InstanceCreationTime": ["144048.808000", "144050.803000", "144052.804000", "144054.804000", "144056.804000", "144058.803000", "144100.803000", "144102.803000", "144104.803000", "144106.803000", "144108.804000", "144110.804000", "144112.804000", "144114.804000", "144116.803000", "144118.803000", "144120.803000", "144122.803000", "144124.817000", "144126.804000", "144128.804000", "144130.804000", "144132.804000", "144134.803000", "144136.803000", "144138.803000", "144140.803000", "144142.803000", "144144.804000", "144146.804000", "144148.804000", "144150.803000", "144152.803000", "144154.803000", "144156.803000", "144158.803000", "144200.803000", "144202.804000", "144204.804000", "144206.804000", "144208.803000", "144210.803000", "144212.803000", "144214.803000", "144216.803000", "144218.804000", "144220.804000", "144222.804000", "144224.804000", "144226.803000", "144228.803000", "144230.803000", "144232.803000", "144234.803000", "144236.804000", "144238.804000", "144240.804000", "144242.804000", "144244.803000", "144246.803000", "144248.803000", "144250.803000", "144252.803000", "144254.804000", "144256.804000", "144258.804000", "144300.803000", "144302.803000", "144304.803000", "144306.803000", "144308.803000", "144310.804000", "144312.804000", "144314.804000", "144316.804000", "144318.803000", "144320.803000", "144322.803000", "144324.803000", "144326.803000", "144328.804000", "144330.804000", "144332.804000", "144334.804000", "144336.803000", "144338.803000", "144340.803000", "144342.803000", "144344.803000", "144346.804000", "144348.804000", "144350.804000", "144352.804000", "144354.803000", "144356.803000", "144358.803000", "144400.803000", "144402.803000", "144404.804000", "144406.804000", "144408.804000", "144410.803000", "144412.803000", "144414.803000", "144416.803000", "144418.803000", "144420.804000", "144422.804000", "144424.804000", "144426.804000", "144428.803000", "144430.803000", "144432.803000", "144434.803000", "144436.803000", "144438.804000", "144440.804000", "144442.804000", "144444.804000", "144446.803000", "144448.803000", "144450.803000", "144452.803000", "144454.803000", "144456.804000", "144458.804000", "144500.804000", "144502.804000", "144504.803000", "144506.803000", "144508.803000", "144510.803000", "144512.803000", "144514.804000", "144516.804000", "144518.804000", "144520.803000", "144522.803000", "144524.803000", "144526.803000", "144528.803000", "144530.804000", "144532.804000", "144534.804000", "144536.804000", "144538.803000", "144540.810000", "144542.803000", "144544.803000", "144546.803000", "144548.804000", "144550.804000", "144552.804000", "144554.804000", "144556.803000", "144558.803000", "144600.803000", "144602.803000", "144604.803000", "144606.804000", "144608.804000", "144610.804000", "144612.804000", "144614.803000", "144616.803000", "144618.803000", "144620.803000", "144622.803000", "144624.804000", "144626.804000", "144628.804000", "144630.803000", "144632.803000", "144634.803000", "144636.803000", "144638.803000", "144640.804000", "144642.804000", "144644.804000", "144646.804000", "144648.803000", "144650.803000", "144652.803000", "144654.803000", "144656.803000", "144658.804000", "144700.804000", "144702.804000", "144704.804000", "144706.803000", "144708.803000", "144710.803000", "144712.803000", "144714.803000", "144716.804000", "144718.804000", "144720.804000", "144722.804000", "144724.803000", "144726.547000"],
      "InstanceNumber": [1, 2, 3, 4, 5, 6, 7, 8, 9, 10, 11, 12, 13, 14, 15, 16, 17, 18, 19, 20, 21, 22, 23, 24, 25, 26, 27, 28, 29, 30, 31, 32, 33, 34, 35, 36, 37, 38, 39, 40, 41, 42, 43, 44, 45, 46, 47, 48, 49, 50, 51, 52, 53, 54, 55, 56, 57, 58, 59, 60, 61, 62, 63, 64, 65, 66, 67, 68, 69, 70, 71, 72, 73, 74, 75, 76, 77, 78, 79, 80, 81, 82, 83, 84, 85, 86, 87, 88, 89, 90, 91, 92, 93, 94, 95, 96, 97, 98, 99, 100, 101, 102, 103, 104, 105, 106, 107, 108, 109, 110, 111, 112, 113, 114, 115, 116, 117, 118, 119, 120, 121, 122, 123, 124, 125, 126, 127, 128, 129, 130, 131, 132, 133, 134, 135, 136, 137, 138, 139, 140, 141, 142, 143, 144, 145, 146, 147, 148, 149, 150, 151, 152, 153, 154, 155, 156, 157, 158, 159, 160, 161, 162, 163, 164, 165, 166, 167, 168, 169, 170, 171, 172, 173, 174, 175, 176, 177, 178, 179, 180, 181, 182, 183, 184, 185, 186, 187, 188, 189, 190, 191, 192, 193, 194, 195, 196, 197, 198, 199, 200],
      "LargestImagePixelValue": [1527, 1575, 1546, 1610, 1587, 1497, 1494, 1570, 1494, 1594, 1621, 1708, 1792, 1588, 1636, 1658, 1583, 1659, 1638, 1586, 1556, 1397, 1520, 1409, 1446, 1497, 1435, 1521, 1613, 1436, 1567, 1610, 1521, 1594, 1638, 1755, 1668, 1688, 1722, 1721, 1603, 1667, 1658, 1634, 1638, 1614, 1608, 1639, 1661, 1453, 1450, 1420, 1573, 1532, 1441, 1559, 1627, 1541, 1695, 1759, 1620, 1634, 1558, 1592, 1460, 1364, 1505, 1580, 1566, 1563, 1537, 1660, 1717, 1748, 1639, 1608, 1396, 1395, 1429, 1500, 1574, 1621, 1748, 1643, 1641, 1416, 1535, 1529, 1642, 1401, 1501, 1672, 1741, 1732, 1636, 1572, 1595, 1604, 1617, 1587, 1389, 1552, 1354, 1534, 1615, 1685, 1706, 1687, 1502, 1372, 1437, 1427, 1605, 1736, 1617, 1559, 1428, 1456, 1454, 1767, 1660, 1623, 1628, 1482, 1547, 1554, 1487, 1789, 1718, 1506, 1494, 1552, 1547, 1489, 1677, 1756, 1691, 1618, 1373, 1391, 1409, 1467, 1657, 1755, 1647, 1660, 1674, 1535, 1430, 1538, 1392, 1587, 1577, 1365, 1489, 1426, 1416, 1532, 1677, 1703, 1741, 1657, 1632, 1600, 1399, 1377, 1436, 1418, 1607, 1575, 1687, 1692, 1655, 1652, 1623, 1687, 1608, 1480, 1468, 1486, 1693, 1777, 1629, 1662, 1457, 1389, 1425, 1399, 1583, 1775, 1628, 1653, 1515, 1415, 1442, 1456, 1469, 1658, 1621, 1710],
      "WindowCenter": [635.0, 635.0, 635.0, 635.0, 634.0, 633.0, 633.0, 633.0, 633.0, 633.0, 634.0, 634.0, 635.0, 633.0, 634.0, 634.0, 634.0, 635.0, 635.0, 634.0, 633.0, 632.0, 633.0, 633.0, 633.0, 633.0, 633.0, 633.0, 633.0, 633.0, 633.0, 634.0, 633.0, 633.0, 633.0, 633.0, 633.0, 634.0, 634.0, 634.0, 633.0, 633.0, 633.0, 633.0, 633.0, 633.0, 633.0, 634.0, 633.0, 632.0, 632.0, 632.0, 633.0, 632.0, 632.0, 632.0, 632.0, 632.0, 634.0, 635.0, 634.0, 633.0, 633.0, 633.0, 633.0, 633.0, 633.0, 633.0, 633.0, 633.0, 632.0, 632.0, 633.0, 633.0, 633.0, 633.0, 632.0, 633.0, 634.0, 634.0, 634.0, 634.0, 634.0, 634.0, 633.0, 632.0, 633.0, 633.0, 633.0, 632.0, 633.0, 634.0, 634.0, 634.0, 633.0, 633.0, 633.0, 633.0, 633.0, 632.0, 631.0, 632.0, 632.0, 633.0, 633.0, 633.0, 634.0, 633.0, 632.0, 632.0, 632.0, 632.0, 633.0, 634.0, 633.0, 633.0, 632.0, 632.0, 632.0, 635.0, 634.0, 634.0, 634.0, 633.0, 633.0, 633.0, 632.0, 634.0, 633.0, 633.0, 633.0, 634.0, 633.0, 633.0, 634.0, 635.0, 634.0, 633.0, 633.0, 633.0, 634.0, 635.0, 635.0, 635.0, 634.0, 634.0, 635.0, 634.0, 633.0, 633.0, 634.0, 635.0, 634.0, 633.0, 633.0, 633.0, 634.0, 634.0, 634.0, 634.0, 634.0, 633.0, 632.0, 632.0, 630.0, 630.0, 631.0, 632.0, 632.0, 633.0, 633.0, 633.0, 633.0, 633.0, 633.0, 634.0, 633.0, 632.0, 631.0, 631.0, 633.0, 634.0, 633.0, 633.0, 632.0, 631.0, 632.0, 633.0, 634.0, 635.0, 634.0, 634.0, 633.0, 633.0, 632.0, 632.0, 632.0, 634.0, 634.0, 635.0],
      "WindowWidth": [1356.0, 1354.0, 1354.0, 1355.0, 1352.0, 1351.0, 1351.0, 1351.0, 1350.0, 1350.0, 1351.0, 1353.0, 1354.0, 1351.0, 1352.0, 1352.0, 1352.0, 1354.0, 1354.0, 1351.0, 1349.0, 1348.0, 1350.0, 1350.0, 1349.0, 1350.0, 1350.0, 1351.0, 1350.0, 1349.0, 1351.0, 1352.0, 1350.0, 1350.0, 1349.0, 1350.0, 1349.0, 1352.0, 1352.0, 1352.0, 1351.0, 1351.0, 1351.0, 1351.0, 1350.0, 1349.0, 1351.0, 1352.0, 1351.0, 1348.0, 1349.0, 1348.0, 1349.0, 1348.0, 1348.0, 1348.0, 1348.0, 1348.0, 1352.0, 1354.0, 1351.0, 1351.0, 1351.0, 1351.0, 1350.0, 1350.0, 1351.0, 1351.0, 1350.0, 1349.0, 1348.0, 1348.0, 1350.0, 1350.0, 1350.0, 1349.0, 1349.0, 1350.0, 1351.0, 1352.0, 1351.0, 1352.0, 1353.0, 1352.0, 1350.0, 1349.0, 1350.0, 1350.0, 1351.0, 1348.0, 1350.0, 1352.0, 1352.0, 1351.0, 1350.0, 1350.0, 1350.0, 1351.0, 1350.0, 1347.0, 1345.0, 1348.0, 1347.0, 1349.0, 1349.0, 1351.0, 1352.0, 1351.0, 1348.0, 1347.0, 1349.0, 1349.0, 1350.0, 1352.0, 1351.0, 1349.0, 1347.0, 1347.0, 1349.0, 1354.0, 1353.0, 1353.0, 1352.0, 1351.0, 1350.0, 1350.0, 1348.0, 1352.0, 1351.0, 1349.0, 1351.0, 1351.0, 1351.0, 1350.0, 1352.0, 1354.0, 1352.0, 1350.0, 1349.0, 1350.0, 1353.0, 1355.0, 1355.0, 1355.0, 1352.0, 1353.0, 1354.0, 1352.0, 1350.0, 1351.0, 1352.0, 1354.0, 1352.0, 1349.0, 1351.0, 1351.0, 1353.0, 1353.0, 1352.0, 1351.0, 1351.0, 1349.0, 1348.0, 1346.0, 1344.0, 1344.0, 1346.0, 1347.0, 1348.0, 1349.0, 1350.0, 1350.0, 1350.0, 1349.0, 1351.0, 1351.0, 1349.0, 1347.0, 1346.0, 1346.0, 1350.0, 1352.0, 1351.0, 1350.0, 1347.0, 1346.0, 1348.0, 1350.0, 1352.0, 1354.0, 1351.0, 1352.0, 1350.0, 1349.0, 1349.0, 1348.0, 1348.0, 1352.0, 1352.0, 1354.0]
    },
    "slices": {}
  }
}