{
  "AcquisitionMatrixPE": 64,
  "AcquisitionNumber": 1,
  "AcquisitionTime": "15:29:9.922500",
  "BandwidthPerPixelPhaseEncode": 31.888,
  "BaseResolution": 64,
  "BodyPartExamined": "HEAD",
  "CoilCombinationMethod": "Sum of Squares",
  "ConsistencyInfo": "N4_VE11C_LATEST_20160120",
  "ConversionSoftware": "dcm2niix",
  "ConversionSoftwareVersion": "v1.0.20211006",
  "DerivedVendorReportedEchoSpacing": 0.000489996,
  "DeviceSerialNumber": "167048",
  "EchoTime": 0.03,
  "EchoTrainLength": 64,
  "EffectiveEchoSpacing": 0.000489996,
  "FlipAngle": 90,
  "ImageOrientationPatientDICOM": [0.999116, 0.0159835, -0.0388849, -0.0174396, 0.999148, -0.0374018],
  "ImageType": [
    "ORIGINAL",
    "PRIMARY",
    "M",
    "ND",
    "NORM",
    "MOSAIC"
],
  "ImagingFrequency": 123.261,
  "InPlanePhaseEncodingDirectionDICOM": "COL",
  "InstitutionAddress": "Azinhaga Santa Comba StreetNo,Coimbra,District,PT,3000",
  "InstitutionName": "ICNAS",
  "MRAcquisitionType": "2D",
  "MagneticFieldStrength": 3,
  "Manufacturer": "Siemens",
  "ManufacturersModelName": "Prisma_fit",
  "MatrixCoilMode": "SENSE",
  "Modality": "MR",
  "PartialFourier": 1,
  "PatientPosition": "HFS",
  "PercentPhaseFOV": 100,
  "PercentSampling": 100,
  "PhaseEncodingDirection": "j-",
  "PhaseEncodingSteps": 64,
  "PhaseResolution": 1,
  "PixelBandwidth": 2365,
  "ProcedureStepDescription": "RM_FUNCIONAL",
  "ProtocolName": "rtfmri_neurofeedback_MTRun4",
  "PulseSequenceDetails": "%SiemensSeq%\\ep2d_bold",
  "ReceiveCoilActiveElements": "HE1-4",
  "ReceiveCoilName": "HeadNeck_20",
  "ReconMatrixPE": 64,
  "RepetitionTime": 2,
  "SAR": 0.103409,
  "ScanOptions": "FS",
  "ScanningSequence": "EP",
  "SequenceName": "*epfid2d1_64",
  "SequenceVariant": "SK",
  "SeriesDescription": "rtfmri_neurofeedback_MTRun4",
  "SeriesNumber": 7,
  "ShimSetting": [10172, 2130, 8366, 407, 62, -82, 36, -51],
  "SliceThickness": 3,
  "SliceTiming": [0, 1.02, 0.06, 1.08, 0.12, 1.14, 0.18, 1.2, 0.24, 1.26, 0.3, 1.32, 0.36, 1.38, 0.42, 1.44, 0.48, 1.5, 0.54, 1.56, 0.6, 1.62, 0.66, 1.68, 0.72, 1.74, 0.78, 1.8, 0.84, 1.86, 0.9, 1.92, 0.96],
  "SoftwareVersions": "syngo MR E11",
  "SpacingBetweenSlices": 3,
  "StationName": "MRC35377",
  "TaskName": "nf",
  "TotalReadoutTime": 0.0308698,
  "TxRefAmp": 260.541,
  "dcmmeta_affine": [
    [-3.9964640140533447, -0.06975840032100677, -0.11476187407970428, 124.42488098144531],
    [-0.06393399834632874, 3.9965920448303223, -0.11414062231779099, -105.02245330810547],
    [-0.1555396020412445, 0.14960719645023346, 2.9956305027008057, -34.36064147949219],
    [0.0, 0.0, 0.0, 1.0]
],
  "dcmmeta_reorient_transform": [
    [0.0, -1.0, 0.0, 63.0],
    [1.0, 0.0, 0.0, 0.0],
    [0.0, 0.0, 1.0, 0.0],
    [0.0, 0.0, 0.0, 1.0]
],
  "dcmmeta_shape": [64, 64, 33, 275],
  "dcmmeta_slice_dim": 2,
  "dcmmeta_version": 0.6,
  "global": {
    "const": {
      "AccessionNumber": "0",
      "AcquisitionMatrix": [64, 0, 0, 64],
      "AngioFlag": "N",
      "BitsAllocated": 16,
      "BitsStored": 12,
      "BodyPartExamined": "HEAD",
      "Columns": 384,
      "EchoNumbers": 1,
      "EchoTime": 30.0,
      "EchoTrainLength": 64,
      "FlipAngle": 90.0,
      "HighBit": 11,
      "ImageOrientationPatient": [0.999116, 0.0159835, -0.0388849, -0.0174396, 0.999148, -0.0374018],
      "ImagePositionPatient": [-748.303, -796.447, 23.8881],
      "ImageType": [
        "ORIGINAL",
        "PRIMARY",
        "M",
        "ND",
        "NORM",
        "MOSAIC"
],
      "ImagedNucleus": "1H",
      "ImagingFrequency": 123.261,
      "InPlanePhaseEncodingDirection": "COL",
      "MRAcquisitionType": "2D",
      "MagneticFieldStrength": 3.0,
      "Manufacturer": "SIEMENS",
      "ManufacturerModelName": "Prisma_fit",
      "Modality": "MR",
      "NumberOfAverages": 1.0,
      "NumberOfFrames": 1,
      "NumberOfPhaseEncodingSteps": 64,
      "PercentPhaseFieldOfView": 100.0,
      "PercentSampling": 100.0,
      "PerformedProcedureStepStartTime": "142751.045000",
      "PhotometricInterpretation": "MONOCHROME2",
      "PixelBandwidth": 2365.0,
      "PixelRepresentation": 0,
      "PixelSpacing": [4.0, 4.0],
      "ProtocolName": "rtfmri_neurofeedback_MTRun4",
      "RepetitionTime": 2000.0,
      "RequestAttributesSequence": [
        {
          "RequestedProcedureID": "1301",
          "ScheduledProcedureStepDescription": "RM_FUNCIONAL",
          "ScheduledProcedureStepID": "1"}
],
      "Rows": 384,
      "SAR": 0.103409,
      "SamplesPerPixel": 1,
      "ScanOptions": "FS",
      "ScanningSequence": "EP",
      "SequenceName": "*epfid2d1_64",
      "SequenceVariant": "SK",
      "SeriesDescription": "rtfmri_neurofeedback_MTRun4",
      "SeriesNumber": 7,
      "SeriesTime": "152912.372000",
      "SliceLocation": -35.0745,
      "SliceThickness": 3.0,
      "SmallestImagePixelValue": 0,
      "SoftwareVersions": "syngo MR E11",
      "SpacingBetweenSlices": 3.0,
      "SpecificCharacterSet": "ISO_IR 100",
      "StudyID": "1301",
      "StudyTime": "142749.391000",
      "TransmitCoilName": "Body",
      "VariableFlipAngleFlag": "N",
      "WindowCenterWidthExplanation": "Algo1",
      "dBdt": 0.0},
    "slices": {}
  },
  "time": {
    "samples": {
      "AcquisitionNumber": [1, 2, 3, 4, 5, 6, 7, 8, 9, 10, 11, 12, 13, 14, 15, 16, 17, 18, 19, 20, 21, 22, 23, 24, 25, 26, 27, 28, 29, 30, 31, 32, 33, 34, 35, 36, 37, 38, 39, 40, 41, 42, 43, 44, 45, 46, 47, 48, 49, 50, 51, 52, 53, 54, 55, 56, 57, 58, 59, 60, 61, 62, 63, 64, 65, 66, 67, 68, 69, 70, 71, 72, 73, 74, 75, 76, 77, 78, 79, 80, 81, 82, 83, 84, 85, 86, 87, 88, 89, 90, 91, 92, 93, 94, 95, 96, 97, 98, 99, 100, 101, 102, 103, 104, 105, 106, 107, 108, 109, 110, 111, 112, 113, 114, 115, 116, 117, 118, 119, 120, 121, 122, 123, 124, 125, 126, 127, 128, 129, 130, 131, 132, 133, 134, 135, 136, 137, 138, 139, 140, 141, 142, 143, 144, 145, 146, 147, 148, 149, 150, 151, 152, 153, 154, 155, 156, 157, 158, 159, 160, 161, 162, 163, 164, 165, 166, 167, 168, 169, 170, 171, 172, 173, 174, 175, 176, 177, 178, 179, 180, 181, 182, 183, 184, 185, 186, 187, 188, 189, 190, 191, 192, 193, 194, 195, 196, 197, 198, 199, 200, 201, 202, 203, 204, 205, 206, 207, 208, 209, 210, 211, 212, 213, 214, 215, 216, 217, 218, 219, 220, 221, 222, 223, 224, 225, 226, 227, 228, 229, 230, 231, 232, 233, 234, 235, 236, 237, 238, 239, 240, 241, 242, 243, 244, 245, 246, 247, 248, 249, 250, 251, 252, 253, 254, 255, 256, 257, 258, 259, 260, 261, 262, 263, 264, 265, 266, 267, 268, 269, 270, 271, 272, 273, 274, 275],
      "AcquisitionTime": ["152909.922500", "152911.922500", "152913.922500", "152915.922500", "152917.922500", "152919.922500", "152921.922500", "152923.922500", "152925.922500", "152927.922500", "152929.922500", "152931.922500", "152933.922500", "152935.922500", "152937.922500", "152939.922500", "152941.922500", "152943.922500", "152945.922500", "152947.922500", "152949.922500", "152951.922500", "152953.922500", "152955.922500", "152957.922500", "152959.922500", "153001.922500", "153003.922500", "153005.922500", "153007.922500", "153009.922500", "153011.922500", "153013.922500", "153015.922500", "153017.922500", "153019.922500", "153021.922500", "153023.922500", "153025.922500", "153027.922500", "153029.922500", "153031.922500", "153033.922500", "153035.922500", "153037.922500", "153039.922500", "153041.922500", "153043.922500", "153045.922500", "153047.922500", "153049.922500", "153051.922500", "153053.922500", "153055.922500", "153057.922500", "153059.922500", "153101.922500", "153103.922500", "153105.922500", "153107.922500", "153109.922500", "153111.922500", "153113.922500", "153115.922500", "153117.922500", "153119.922500", "153121.922500", "153123.922500", "153125.922500", "153127.922500", "153129.922500", "153131.922500", "153133.922500", "153135.922500", "153137.922500", "153139.922500", "153141.922500", "153143.922500", "153145.922500", "153147.922500", "153149.922500", "153151.922500", "153153.922500", "153155.922500", "153157.922500", "153159.922500", "153201.922500", "153203.922500", "153205.922500", "153207.922500", "153209.922500", "153211.922500", "153213.922500", "153215.922500", "153217.922500", "153219.922500", "153221.922500", "153223.922500", "153225.922500", "153227.922500", "153229.922500", "153231.922500", "153233.922500", "153235.922500", "153237.922500", "153239.922500", "153241.922500", "153243.922500", "153245.922500", "153247.922500", "153249.922500", "153251.922500", "153253.922500", "153255.922500", "153257.922500", "153259.922500", "153301.922500", "153303.922500", "153305.922500", "153307.922500", "153309.922500", "153311.922500", "153313.922500", "153315.922500", "153317.922500", "153319.922500", "153321.922500", "153323.922500", "153325.922500", "153327.922500", "153329.922500", "153331.922500", "153333.922500", "153335.922500", "153337.922500", "153339.922500", "153341.922500", "153343.922500", "153345.922500", "153347.922500", "153349.922500", "153351.922500", "153353.922500", "153355.922500", "153357.922500", "153359.922500", "153401.922500", "153403.922500", "153405.922500", "153407.922500", "153409.922500", "153411.922500", "153413.922500", "153415.922500", "153417.922500", "153419.922500", "153421.922500", "153423.922500", "153425.922500", "153427.922500", "153429.922500", "153431.922500", "153433.922500", "153435.922500", "153437.922500", "153439.922500", "153441.922500", "153443.922500", "153445.922500", "153447.922500", "153449.922500", "153451.922500", "153453.922500", "153455.922500", "153457.922500", "153459.922500", "153501.922500", "153503.922500", "153505.922500", "153507.922500", "153509.922500", "153511.922500", "153513.922500", "153515.922500", "153517.922500", "153519.922500", "153521.922500", "153523.922500", "153525.922500", "153527.922500", "153529.922500", "153531.922500", "153533.922500", "153535.922500", "153537.922500", "153539.922500", "153541.922500", "153543.922500", "153545.922500", "153547.922500", "153549.922500", "153551.922500", "153553.922500", "153555.922500", "153557.922500", "153559.922500", "153601.922500", "153603.922500", "153605.922500", "153607.922500", "153609.922500", "153611.922500", "153613.922500", "153615.922500", "153617.922500", "153619.922500", "153621.922500", "153623.922500", "153625.922500", "153627.922500", "153629.922500", "153631.922500", "153633.922500", "153635.922500", "153637.922500", "153639.922500", "153641.922500", "153643.922500", "153645.922500", "153647.922500", "153649.922500", "153651.922500", "153653.922500", "153655.922500", "153657.922500", "153659.922500", "153701.922500", "153703.922500", "153705.922500", "153707.922500", "153709.922500", "153711.922500", "153713.922500", "153715.922500", "153717.922500", "153719.922500", "153721.922500", "153723.922500", "153725.922500", "153727.922500", "153729.922500", "153731.922500", "153733.922500", "153735.922500", "153737.922500", "153739.922500", "153741.922500", "153743.922500", "153745.922500", "153747.922500", "153749.922500", "153751.922500", "153753.922500", "153755.922500", "153757.922500", "153759.922500", "153801.922500", "153803.922500", "153805.922500", "153807.922500", "153809.922500", "153811.922500", "153813.922500", "153815.922500", "153817.922500"],
      "ContentTime": ["152912.374000", "152914.371000", "152916.371000", "152918.371000", "152920.371000", "152922.370000", "152924.370000", "152926.370000", "152928.370000", "152930.370000", "152932.371000", "152934.371000", "152936.371000", "152938.371000", "152940.370000", "152942.370000", "152944.370000", "152946.370000", "152948.385000", "152950.371000", "152952.371000", "152954.371000", "152956.371000", "152958.370000", "153000.370000", "153002.370000", "153004.370000", "153006.371000", "153008.391000", "153010.371000", "153012.371000", "153014.370000", "153016.370000", "153018.370000", "153020.370000", "153022.370000", "153024.371000", "153026.371000", "153028.371000", "153030.371000", "153032.370000", "153034.370000", "153036.370000", "153038.370000", "153040.370000", "153042.371000", "153044.371000", "153046.371000", "153048.371000", "153050.370000", "153052.370000", "153054.370000", "153056.370000", "153058.371000", "153100.371000", "153102.371000", "153104.371000", "153106.371000", "153108.370000", "153110.370000", "153112.370000", "153114.370000", "153116.371000", "153118.371000", "153120.371000", "153122.371000", "153124.370000", "153126.370000", "153128.370000", "153130.370000", "153132.370000", "153134.371000", "153136.371000", "153138.371000", "153140.371000", "153142.370000", "153144.370000", "153146.370000", "153148.370000", "153150.370000", "153152.371000", "153154.371000", "153156.371000", "153158.371000", "153200.370000", "153202.370000", "153204.370000", "153206.370000", "153208.371000", "153210.371000", "153212.371000", "153214.371000", "153216.371000", "153218.370000", "153220.370000", "153222.370000", "153224.370000", "153226.371000", "153228.371000", "153230.371000", "153232.371000", "153234.370000", "153236.370000", "153238.370000", "153240.370000", "153242.370000", "153244.371000", "153246.371000", "153248.371000", "153250.371000", "153252.370000", "153254.370000", "153256.370000", "153258.370000", "153300.370000", "153302.371000", "153304.371000", "153306.371000", "153308.371000", "153310.370000", "153312.370000", "153314.370000", "153316.370000", "153318.371000", "153320.371000", "153322.371000", "153324.371000", "153326.371000", "153328.370000", "153330.370000", "153332.370000", "153334.370000", "153336.371000", "153338.371000", "153340.371000", "153342.371000", "153344.370000", "153346.370000", "153348.370000", "153350.370000", "153352.370000", "153354.371000", "153356.371000", "153358.371000", "153400.371000", "153402.370000", "153404.370000", "153406.370000", "153408.370000", "153410.371000", "153412.371000", "153414.371000", "153416.371000", "153418.371000", "153420.370000", "153422.370000", "153424.370000", "153426.370000", "153428.371000", "153430.371000", "153432.371000", "153434.371000", "153436.371000", "153438.370000", "153440.370000", "153442.370000", "153444.370000", "153446.371000", "153448.371000", "153450.371000", "153452.371000", "153454.370000", "153456.370000", "153458.370000", "153500.370000", "153502.370000", "153504.371000", "153506.371000", "153508.371000", "153510.371000", "153512.370000", "153514.370000", "153516.370000", "153518.370000", "153520.371000", "153522.371000", "153524.371000", "153526.371000", "153528.371000", "153530.370000", "153532.370000", "153534.370000", "153536.370000", "153538.371000", "153540.371000", "153542.371000", "153544.371000", "153546.371000", "153548.370000", "153550.370000", "153552.370000", "153554.370000", "153556.371000", "153558.371000", "153600.371000", "153602.371000", "153604.370000", "153606.370000", "153608.370000", "153610.370000", "153612.370000", "153614.371000", "153616.371000", "153618.371000", "153620.371000", "153622.370000", "153624.370000", "153626.370000", "153628.370000", "153630.371000", "153632.371000", "153634.371000", "153636.371000", "153638.371000", "153640.370000", "153642.370000", "153644.370000", "153646.370000", "153648.371000", "153650.371000", "153652.371000", "153654.371000", "153656.371000", "153658.370000", "153700.370000", "153702.370000", "153704.370000", "153706.371000", "153708.371000", "153710.371000", "153712.371000", "153714.370000", "153716.370000", "153718.370000", "153720.370000", "153722.370000", "153724.371000", "153726.372000", "153728.373000", "153730.372000", "153732.370000", "153734.370000", "153736.370000", "153738.370000", "153740.371000", "153742.371000", "153744.371000", "153746.371000", "153748.371000", "153750.370000", "153752.370000", "153754.370000", "153756.370000", "153758.371000", "153800.371000", "153802.371000", "153804.371000", "153806.370000", "153808.370000", "153810.370000", "153812.370000", "153814.370000", "153816.371000", "153818.371000", "153820.090000"],
      "InstanceCreationTime": ["152912.374000", "152914.371000", "152916.371000", "152918.371000", "152920.371000", "152922.370000", "152924.370000", "152926.370000", "152928.370000", "152930.370000", "152932.371000", "152934.371000", "152936.371000", "152938.371000", "152940.370000", "152942.370000", "152944.370000", "152946.370000", "152948.385000", "152950.371000", "152952.371000", "152954.371000", "152956.371000", "152958.370000", "153000.370000", "153002.370000", "153004.370000", "153006.371000", "153008.391000", "153010.371000", "153012.371000", "153014.370000", "153016.370000", "153018.370000", "153020.370000", "153022.370000", "153024.371000", "153026.371000", "153028.371000", "153030.371000", "153032.370000", "153034.370000", "153036.370000", "153038.370000", "153040.370000", "153042.371000", "153044.371000", "153046.371000", "153048.371000", "153050.370000", "153052.370000", "153054.370000", "153056.370000", "153058.371000", "153100.371000", "153102.371000", "153104.371000", "153106.371000", "153108.370000", "153110.370000", "153112.370000", "153114.370000", "153116.371000", "153118.371000", "153120.371000", "153122.371000", "153124.370000", "153126.370000", "153128.370000", "153130.370000", "153132.370000", "153134.371000", "153136.371000", "153138.371000", "153140.371000", "153142.370000", "153144.370000", "153146.370000", "153148.370000", "153150.370000", "153152.371000", "153154.371000", "153156.371000", "153158.371000", "153200.370000", "153202.370000", "153204.370000", "153206.370000", "153208.371000", "153210.371000", "153212.371000", "153214.371000", "153216.371000", "153218.370000", "153220.370000", "153222.370000", "153224.370000", "153226.371000", "153228.371000", "153230.371000", "153232.371000", "153234.370000", "153236.370000", "153238.370000", "153240.370000", "153242.370000", "153244.371000", "153246.371000", "153248.371000", "153250.371000", "153252.370000", "153254.370000", "153256.370000", "153258.370000", "153300.370000", "153302.371000", "153304.371000", "153306.371000", "153308.371000", "153310.370000", "153312.370000", "153314.370000", "153316.370000", "153318.371000", "153320.371000", "153322.371000", "153324.371000", "153326.371000", "153328.370000", "153330.370000", "153332.370000", "153334.370000", "153336.371000", "153338.371000", "153340.371000", "153342.371000", "153344.370000", "153346.370000", "153348.370000", "153350.370000", "153352.370000", "153354.371000", "153356.371000", "153358.371000", "153400.371000", "153402.370000", "153404.370000", "153406.370000", "153408.370000", "153410.371000", "153412.371000", "153414.371000", "153416.371000", "153418.371000", "153420.370000", "153422.370000", "153424.370000", "153426.370000", "153428.371000", "153430.371000", "153432.371000", "153434.371000", "153436.371000", "153438.370000", "153440.370000", "153442.370000", "153444.370000", "153446.371000", "153448.371000", "153450.371000", "153452.371000", "153454.370000", "153456.370000", "153458.370000", "153500.370000", "153502.370000", "153504.371000", "153506.371000", "153508.371000", "153510.371000", "153512.370000", "153514.370000", "153516.370000", "153518.370000", "153520.371000", "153522.371000", "153524.371000", "153526.371000", "153528.371000", "153530.370000", "153532.370000", "153534.370000", "153536.370000", "153538.371000", "153540.371000", "153542.371000", "153544.371000", "153546.371000", "153548.370000", "153550.370000", "153552.370000", "153554.370000", "153556.371000", "153558.371000", "153600.371000", "153602.371000", "153604.370000", "153606.370000", "153608.370000", "153610.370000", "153612.370000", "153614.371000", "153616.371000", "153618.371000", "153620.371000", "153622.370000", "153624.370000", "153626.370000", "153628.370000", "153630.371000", "153632.371000", "153634.371000", "153636.371000", "153638.371000", "153640.370000", "153642.370000", "153644.370000", "153646.370000", "153648.371000", "153650.371000", "153652.371000", "153654.371000", "153656.371000", "153658.370000", "153700.370000", "153702.370000", "153704.370000", "153706.371000", "153708.371000", "153710.371000", "153712.371000", "153714.370000", "153716.370000", "153718.370000", "153720.370000", "153722.370000", "153724.371000", "153726.372000", "153728.373000", "153730.372000", "153732.370000", "153734.370000", "153736.370000", "153738.370000", "153740.371000", "153742.371000", "153744.371000", "153746.371000", "153748.371000", "153750.370000", "153752.370000", "153754.370000", "153756.370000", "153758.371000", "153800.371000", "153802.371000", "153804.371000", "153806.370000", "153808.370000", "153810.370000", "153812.370000", "153814.370000", "153816.371000", "153818.371000", "153820.090000"],
      "InstanceNumber": [1, 2, 3, 4, 5, 6, 7, 8, 9, 10, 11, 12, 13, 14, 15, 16, 17, 18, 19, 20, 21, 22, 23, 24, 25, 26, 27, 28, 29, 30, 31, 32, 33, 34, 35, 36, 37, 38, 39, 40, 41, 42, 43, 44, 45, 46, 47, 48, 49, 50, 51, 52, 53, 54, 55, 56, 57, 58, 59, 60, 61, 62, 63, 64, 65, 66, 67, 68, 69, 70, 71, 72, 73, 74, 75, 76, 77, 78, 79, 80, 81, 82, 83, 84, 85, 86, 87, 88, 89, 90, 91, 92, 93, 94, 95, 96, 97, 98, 99, 100, 101, 102, 103, 104, 105, 106, 107, 108, 109, 110, 111, 112, 113, 114, 115, 116, 117, 118, 119, 120, 121, 122, 123, 124, 125, 126, 127, 128, 129, 130, 131, 132, 133, 134, 135, 136, 137, 138, 139, 140, 141, 142, 143, 144, 145, 146, 147, 148, 149, 150, 151, 152, 153, 154, 155, 156, 157, 158, 159, 160, 161, 162, 163, 164, 165, 166, 167, 168, 169, 170, 171, 172, 173, 174, 175, 176, 177, 178, 179, 180, 181, 182, 183, 184, 185, 186, 187, 188, 189, 190, 191, 192, 193, 194, 195, 196, 197, 198, 199, 200, 201, 202, 203, 204, 205, 206, 207, 208, 209, 210, 211, 212, 213, 214, 215, 216, 217, 218, 219, 220, 221, 222, 223, 224, 225, 226, 227, 228, 229, 230, 231, 232, 233, 234, 235, 236, 237, 238, 239, 240, 241, 242, 243, 244, 245, 246, 247, 248, 249, 250, 251, 252, 253, 254, 255, 256, 257, 258, 259, 260, 261, 262, 263, 264, 265, 266, 267, 268, 269, 270, 271, 272, 273, 274, 275],
      "LargestImagePixelValue": [1738, 1673, 1769, 1750, 1741, 1876, 1768, 1792, 1773, 1603, 1647, 1580, 1557, 1627, 1756, 1638, 1766, 1819, 1763, 1798, 1782, 1744, 1565, 1661, 1544, 1662, 1668, 1610, 1701, 1831, 1815, 1807, 1785, 1759, 1598, 1618, 1529, 1575, 1633, 1560, 1634, 1671, 1753, 1797, 1850, 1808, 1710, 1690, 1688, 1635, 1572, 1537, 1564, 1608, 1581, 1599, 1623, 1660, 1705, 1812, 1857, 1833, 1810, 1789, 1781, 1561, 1579, 1553, 1563, 1637, 1559, 1631, 1805, 1822, 1845, 1823, 1809, 1846, 1743, 1535, 1577, 1563, 1592, 1588, 1582, 1647, 1709, 1784, 1699, 1682, 1735, 1716, 1867, 1785, 1796, 1786, 1557, 1541, 1581, 1583, 1608, 1671, 1775, 1825, 1808, 1803, 1772, 1617, 1577, 1549, 1618, 1588, 1578, 1601, 1711, 1782, 1907, 1811, 1666, 1570, 1590, 1553, 1592, 1617, 1562, 1657, 1751, 1851, 1818, 1794, 1741, 1501, 1584, 1523, 1595, 1654, 1624, 1907, 1862, 1772, 1630, 1464, 1542, 1614, 1594, 1694, 1793, 1821, 1793, 1612, 1565, 1615, 1582, 1655, 1676, 1717, 1737, 1758, 1797, 1837, 1754, 1568, 1583, 1647, 1786, 1894, 1820, 1732, 1516, 1594, 1628, 1607, 1700, 1925, 1861, 1684, 1515, 1518, 1613, 1636, 1684, 1890, 1843, 1747, 1523, 1587, 1596, 1727, 1969, 1792, 1680, 1586, 1558, 1641, 1696, 1760, 1880, 1847, 1777, 1653, 1498, 1579, 1594, 1668, 1694, 1905, 1844, 1765, 1490, 1578, 1599, 1616, 1776, 1927, 1802, 1715, 1555, 1601, 1644, 1647, 1613, 1719, 1943, 1796, 1579, 1564, 1541, 1646, 1660, 1746, 1785, 1780, 1758, 1592, 1537, 1536, 1579, 1658, 1613, 1743, 1678, 1774, 1907, 1822, 1796, 1778, 1534, 1546, 1622, 1695, 1630, 1823, 1813, 1812, 1797, 1502, 1534, 1649, 1579, 1727, 1905, 1788, 1766, 1624, 1585, 1522, 1619, 1725, 1871, 1827, 1796, 1512, 1531, 1647, 1718],
      "WindowCenter": [650.0, 647.0, 647.0, 646.0, 646.0, 646.0, 646.0, 646.0, 646.0, 645.0, 645.0, 645.0, 645.0, 646.0, 647.0, 647.0, 647.0, 648.0, 647.0, 647.0, 647.0, 647.0, 646.0, 647.0, 646.0, 646.0, 647.0, 646.0, 646.0, 647.0, 646.0, 646.0, 646.0, 646.0, 645.0, 645.0, 645.0, 646.0, 646.0, 646.0, 646.0, 646.0, 646.0, 647.0, 647.0, 646.0, 646.0, 647.0, 646.0, 646.0, 646.0, 645.0, 645.0, 646.0, 646.0, 646.0, 646.0, 646.0, 646.0, 647.0, 648.0, 648.0, 647.0, 647.0, 647.0, 646.0, 645.0, 646.0, 646.0, 646.0, 646.0, 646.0, 647.0, 647.0, 646.0, 646.0, 646.0, 646.0, 646.0, 645.0, 645.0, 645.0, 645.0, 645.0, 645.0, 646.0, 646.0, 646.0, 647.0, 646.0, 646.0, 646.0, 646.0, 646.0, 646.0, 646.0, 644.0, 645.0, 645.0, 645.0, 645.0, 645.0, 646.0, 647.0, 646.0, 646.0, 646.0, 646.0, 645.0, 645.0, 646.0, 645.0, 646.0, 646.0, 646.0, 646.0, 646.0, 646.0, 645.0, 645.0, 645.0, 645.0, 645.0, 646.0, 646.0, 646.0, 646.0, 647.0, 647.0, 646.0, 646.0, 645.0, 646.0, 646.0, 647.0, 647.0, 646.0, 647.0, 647.0, 646.0, 646.0, 645.0, 646.0, 646.0, 646.0, 647.0, 647.0, 648.0, 647.0, 646.0, 646.0, 646.0, 646.0, 646.0, 646.0, 646.0, 647.0, 647.0, 647.0, 646.0, 646.0, 644.0, 645.0, 645.0, 646.0, 646.0, 646.0, 645.0, 644.0, 645.0, 645.0, 645.0, 645.0, 646.0, 647.0, 646.0, 646.0, 646.0, 647.0, 646.0, 646.0, 647.0, 646.0, 646.0, 645.0, 645.0, 645.0, 646.0, 647.0, 647.0, 646.0, 646.0, 646.0, 646.0, 646.0, 646.0, 647.0, 647.0, 646.0, 646.0, 645.0, 645.0, 645.0, 646.0, 645.0, 647.0, 646.0, 645.0, 644.0, 645.0, 645.0, 645.0, 646.0, 647.0, 646.0, 646.0, 646.0, 647.0, 647.0, 646.0, 646.0, 646.0, 647.0, 646.0, 646.0, 646.0, 645.0, 646.0, 646.0, 647.0, 647.0, 646.0, 646.0, 645.0, 645.0, 646.0, 646.0, 646.0, 646.0, 646.0, 646.0, 646.0, 647.0, 647.0, 647.0, 647.0, 645.0, 646.0, 646.0, 646.0, 645.0, 646.0, 646.0, 646.0, 646.0, 645.0, 645.0, 645.0, 645.0, 645.0, 646.0, 646.0, 646.0, 645.0, 645.0, 645.0, 646.0, 646.0, 647.0, 647.0, 646.0, 645.0, 645.0, 645.0, 646.0],
      "WindowWidth": [1392.0, 1385.0, 1384.0, 1383.0, 1382.0, 1384.0, 1382.0, 1382.0, 1383.0, 1380.0, 1381.0, 1381.0, 1381.0, 1383.0, 1386.0, 1385.0, 1386.0, 1387.0, 1385.0, 1385.0, 1385.0, 1385.0, 1384.0, 1385.0, 1384.0, 1384.0, 1385.0, 1383.0, 1384.0, 1385.0, 1384.0, 1384.0, 1383.0, 1382.0, 1381.0, 1381.0, 1382.0, 1382.0, 1383.0, 1382.0, 1384.0, 1383.0, 1384.0, 1385.0, 1385.0, 1384.0, 1384.0, 1384.0, 1383.0, 1383.0, 1382.0, 1382.0, 1382.0, 1383.0, 1383.0, 1383.0, 1382.0, 1383.0, 1384.0, 1386.0, 1387.0, 1387.0, 1386.0, 1385.0, 1384.0, 1382.0, 1382.0, 1382.0, 1383.0, 1384.0, 1384.0, 1383.0, 1385.0, 1384.0, 1384.0, 1383.0, 1383.0, 1383.0, 1382.0, 1381.0, 1381.0, 1381.0, 1381.0, 1382.0, 1381.0, 1382.0, 1383.0, 1384.0, 1385.0, 1384.0, 1384.0, 1383.0, 1383.0, 1383.0, 1383.0, 1382.0, 1379.0, 1380.0, 1379.0, 1381.0, 1381.0, 1382.0, 1384.0, 1384.0, 1384.0, 1384.0, 1383.0, 1382.0, 1381.0, 1381.0, 1382.0, 1382.0, 1384.0, 1383.0, 1384.0, 1384.0, 1383.0, 1382.0, 1382.0, 1381.0, 1381.0, 1381.0, 1382.0, 1382.0, 1383.0, 1383.0, 1383.0, 1385.0, 1385.0, 1384.0, 1383.0, 1381.0, 1383.0, 1383.0, 1384.0, 1385.0, 1383.0, 1385.0, 1384.0, 1384.0, 1383.0, 1381.0, 1382.0, 1383.0, 1383.0, 1385.0, 1386.0, 1387.0, 1385.0, 1384.0, 1383.0, 1383.0, 1383.0, 1383.0, 1383.0, 1383.0, 1385.0, 1386.0, 1386.0, 1384.0, 1382.0, 1379.0, 1380.0, 1380.0, 1382.0, 1382.0, 1382.0, 1382.0, 1380.0, 1380.0, 1380.0, 1381.0, 1382.0, 1383.0, 1384.0, 1383.0, 1382.0, 1383.0, 1384.0, 1384.0, 1382.0, 1385.0, 1383.0, 1382.0, 1380.0, 1381.0, 1381.0, 1382.0, 1385.0, 1385.0, 1384.0, 1384.0, 1383.0, 1384.0, 1383.0, 1384.0, 1385.0, 1385.0, 1384.0, 1383.0, 1381.0, 1382.0, 1382.0, 1382.0, 1382.0, 1385.0, 1383.0, 1382.0, 1379.0, 1380.0, 1380.0, 1381.0, 1384.0, 1385.0, 1384.0, 1383.0, 1382.0, 1384.0, 1384.0, 1384.0, 1384.0, 1384.0, 1386.0, 1383.0, 1382.0, 1382.0, 1381.0, 1383.0, 1383.0, 1385.0, 1385.0, 1383.0, 1382.0, 1381.0, 1382.0, 1383.0, 1383.0, 1382.0, 1382.0, 1384.0, 1383.0, 1384.0, 1385.0, 1385.0, 1385.0, 1385.0, 1382.0, 1383.0, 1384.0, 1382.0, 1380.0, 1382.0, 1382.0, 1382.0, 1382.0, 1380.0, 1380.0, 1380.0, 1380.0, 1381.0, 1383.0, 1382.0, 1382.0, 1380.0, 1380.0, 1380.0, 1383.0, 1383.0, 1384.0, 1384.0, 1383.0, 1380.0, 1380.0, 1381.0, 1382.0]
    },
    "slices": {}
  }
}