{
  "AcquisitionMatrixPE": 64,
  "AcquisitionNumber": 1,
  "AcquisitionTime": "18:21:48.937500",
  "BandwidthPerPixelPhaseEncode": 31.888,
  "BaseResolution": 64,
  "BodyPartExamined": "HEAD",
  "CoilCombinationMethod": "Sum of Squares",
  "ConsistencyInfo": "N4_VE11C_LATEST_20160120",
  "ConversionSoftware": "dcm2niix",
  "ConversionSoftwareVersion": "v1.0.20211006",
  "DerivedVendorReportedEchoSpacing": 0.000489996,
  "DeviceSerialNumber": "167048",
  "EchoTime": 0.03,
  "EchoTrainLength": 64,
  "EffectiveEchoSpacing": 0.000489996,
  "FlipAngle": 90,
  "ImageOrientationPatientDICOM": [0.998685, 0.0512692, 0.000327859, -0.0505912, 0.986475, -0.155909],
  "ImageType": [
    "ORIGINAL",
    "PRIMARY",
    "M",
    "ND",
    "NORM",
    "MOSAIC"
],
  "ImagingFrequency": 123.261,
  "InPlanePhaseEncodingDirectionDICOM": "COL",
  "InstitutionAddress": "Azinhaga Santa Comba StreetNo,Coimbra,District,PT,3000",
  "InstitutionName": "ICNAS",
  "MRAcquisitionType": "2D",
  "MagneticFieldStrength": 3,
  "Manufacturer": "Siemens",
  "ManufacturersModelName": "Prisma_fit",
  "MatrixCoilMode": "SENSE",
  "Modality": "MR",
  "PartialFourier": 1,
  "PatientPosition": "HFS",
  "PercentPhaseFOV": 100,
  "PercentSampling": 100,
  "PhaseEncodingDirection": "j-",
  "PhaseEncodingSteps": 64,
  "PhaseResolution": 1,
  "PixelBandwidth": 2365,
  "ProcedureStepDescription": "RM_FUNCIONAL",
  "ProtocolName": "rtfmri_neurofeedback_MTRun2",
  "PulseSequenceDetails": "%SiemensSeq%\\ep2d_bold",
  "ReceiveCoilActiveElements": "HE1-4",
  "ReceiveCoilName": "HeadNeck_20",
  "ReconMatrixPE": 64,
  "RepetitionTime": 2,
  "SAR": 0.0995964,
  "ScanOptions": "FS",
  "ScanningSequence": "EP",
  "SequenceName": "*epfid2d1_64",
  "SequenceVariant": "SK",
  "SeriesDescription": "rtfmri_neurofeedback_MTRun2",
  "SeriesNumber": 7,
  "ShimSetting": [10170, 2136, 8370, 473, -35, 46, -53, 8],
  "SliceThickness": 3,
  "SliceTiming": [0, 1.02, 0.06, 1.08, 0.12, 1.14, 0.18, 1.2, 0.24, 1.26, 0.3, 1.32, 0.36, 1.38, 0.42, 1.44, 0.48, 1.5, 0.54, 1.56, 0.6, 1.62, 0.66, 1.68, 0.72, 1.74, 0.78, 1.8, 0.84, 1.86, 0.9, 1.92, 0.96],
  "SoftwareVersions": "syngo MR E11",
  "SpacingBetweenSlices": 3,
  "StationName": "MRC35377",
  "TaskName": "nf",
  "TotalReadoutTime": 0.0308698,
  "TxRefAmp": 237.563,
  "dcmmeta_affine": [
    [-3.9947400093078613, -0.20236480236053467, 0.024950264021754265, 131.2679443359375],
    [-0.20507679879665375, 3.9458999633789062, -0.46706217527389526, -99.06698608398438],
    [0.001311435946263373, 0.62363600730896, 2.9633147716522217, -56.02309799194336],
    [0.0, 0.0, 0.0, 1.0]
],
  "dcmmeta_reorient_transform": [
    [0.0, -1.0, 0.0, 63.0],
    [1.0, 0.0, 0.0, 0.0],
    [0.0, 0.0, 1.0, 0.0],
    [0.0, 0.0, 0.0, 1.0]
],
  "dcmmeta_shape": [64, 64, 33, 275],
  "dcmmeta_slice_dim": 2,
  "dcmmeta_version": 0.6,
  "global": {
    "const": {
      "AccessionNumber": "0",
      "AcquisitionMatrix": [64, 0, 0, 64],
      "AngioFlag": "N",
      "BitsAllocated": 16,
      "BitsStored": 12,
      "BodyPartExamined": "HEAD",
      "Columns": 384,
      "EchoNumbers": 1,
      "EchoTime": 30.0,
      "EchoTrainLength": 64,
      "FlipAngle": 90.0,
      "HighBit": 11,
      "ImageOrientationPatient": [0.998685, 0.0512692, 0.000327859, -0.0505912, 0.986475, -0.155909],
      "ImagePositionPatient": [-725.299, -813.681, 82.8379],
      "ImageType": [
        "ORIGINAL",
        "PRIMARY",
        "M",
        "ND",
        "NORM",
        "MOSAIC"
],
      "ImagedNucleus": "1H",
      "ImagingFrequency": 123.261,
      "InPlanePhaseEncodingDirection": "COL",
      "MRAcquisitionType": "2D",
      "MagneticFieldStrength": 3.0,
      "Manufacturer": "SIEMENS",
      "ManufacturerModelName": "Prisma_fit",
      "Modality": "MR",
      "NumberOfAverages": 1.0,
      "NumberOfFrames": 1,
      "NumberOfPhaseEncodingSteps": 64,
      "PercentPhaseFieldOfView": 100.0,
      "PercentSampling": 100.0,
      "PerformedProcedureStepStartTime": "171425.480000",
      "PhotometricInterpretation": "MONOCHROME2",
      "PixelBandwidth": 2365.0,
      "PixelRepresentation": 0,
      "PixelSpacing": [4.0, 4.0],
      "ProtocolName": "rtfmri_neurofeedback_MTRun2",
      "RepetitionTime": 2000.0,
      "RequestAttributesSequence": [
        {
          "RequestedProcedureID": "860",
          "ScheduledProcedureStepDescription": "RM_FUNCIONAL",
          "ScheduledProcedureStepID": "1"}
],
      "Rows": 384,
      "SAR": 0.0995964,
      "SamplesPerPixel": 1,
      "ScanOptions": "FS",
      "ScanningSequence": "EP",
      "SequenceName": "*epfid2d1_64",
      "SequenceVariant": "SK",
      "SeriesDescription": "rtfmri_neurofeedback_MTRun2",
      "SeriesNumber": 7,
      "SeriesTime": "182151.881000",
      "SliceLocation": -38.823,
      "SliceThickness": 3.0,
      "SmallestImagePixelValue": 0,
      "SoftwareVersions": "syngo MR E11",
      "SpacingBetweenSlices": 3.0,
      "SpecificCharacterSet": "ISO_IR 100",
      "StudyID": "860",
      "StudyTime": "171423.779000",
      "TransmitCoilName": "Body",
      "VariableFlipAngleFlag": "N",
      "WindowCenterWidthExplanation": "Algo1",
      "dBdt": 0.0},
    "slices": {}
  },
  "time": {
    "samples": {
      "AcquisitionNumber": [1, 2, 3, 4, 5, 6, 7, 8, 9, 10, 11, 12, 13, 14, 15, 16, 17, 18, 19, 20, 21, 22, 23, 24, 25, 26, 27, 28, 29, 30, 31, 32, 33, 34, 35, 36, 37, 38, 39, 40, 41, 42, 43, 44, 45, 46, 47, 48, 49, 50, 51, 52, 53, 54, 55, 56, 57, 58, 59, 60, 61, 62, 63, 64, 65, 66, 67, 68, 69, 70, 71, 72, 73, 74, 75, 76, 77, 78, 79, 80, 81, 82, 83, 84, 85, 86, 87, 88, 89, 90, 91, 92, 93, 94, 95, 96, 97, 98, 99, 100, 101, 102, 103, 104, 105, 106, 107, 108, 109, 110, 111, 112, 113, 114, 115, 116, 117, 118, 119, 120, 121, 122, 123, 124, 125, 126, 127, 128, 129, 130, 131, 132, 133, 134, 135, 136, 137, 138, 139, 140, 141, 142, 143, 144, 145, 146, 147, 148, 149, 150, 151, 152, 153, 154, 155, 156, 157, 158, 159, 160, 161, 162, 163, 164, 165, 166, 167, 168, 169, 170, 171, 172, 173, 174, 175, 176, 177, 178, 179, 180, 181, 182, 183, 184, 185, 186, 187, 188, 189, 190, 191, 192, 193, 194, 195, 196, 197, 198, 199, 200, 201, 202, 203, 204, 205, 206, 207, 208, 209, 210, 211, 212, 213, 214, 215, 216, 217, 218, 219, 220, 221, 222, 223, 224, 225, 226, 227, 228, 229, 230, 231, 232, 233, 234, 235, 236, 237, 238, 239, 240, 241, 242, 243, 244, 245, 246, 247, 248, 249, 250, 251, 252, 253, 254, 255, 256, 257, 258, 259, 260, 261, 262, 263, 264, 265, 266, 267, 268, 269, 270, 271, 272, 273, 274, 275],
      "AcquisitionTime": ["182148.937500", "182150.937500", "182152.937500", "182154.937500", "182156.937500", "182158.937500", "182200.937500", "182202.937500", "182204.937500", "182206.937500", "182208.937500", "182210.937500", "182212.937500", "182214.937500", "182216.937500", "182218.937500", "182220.937500", "182222.937500", "182224.937500", "182226.937500", "182228.937500", "182230.937500", "182232.937500", "182234.937500", "182236.937500", "182238.937500", "182240.937500", "182242.937500", "182244.937500", "182246.937500", "182248.937500", "182250.937500", "182252.937500", "182254.937500", "182256.937500", "182258.937500", "182300.937500", "182302.937500", "182304.937500", "182306.937500", "182308.937500", "182310.937500", "182312.937500", "182314.937500", "182316.937500", "182318.937500", "182320.937500", "182322.937500", "182324.937500", "182326.937500", "182328.937500", "182330.937500", "182332.937500", "182334.937500", "182336.937500", "182338.937500", "182340.937500", "182342.937500", "182344.937500", "182346.937500", "182348.937500", "182350.937500", "182352.937500", "182354.937500", "182356.937500", "182358.937500", "182400.937500", "182402.937500", "182404.937500", "182406.937500", "182408.937500", "182410.937500", "182412.937500", "182414.937500", "182416.937500", "182418.937500", "182420.937500", "182422.937500", "182424.937500", "182426.937500", "182428.937500", "182430.937500", "182432.937500", "182434.937500", "182436.937500", "182438.937500", "182440.937500", "182442.937500", "182444.937500", "182446.937500", "182448.937500", "182450.937500", "182452.937500", "182454.937500", "182456.937500", "182458.937500", "182500.937500", "182502.937500", "182504.937500", "182506.937500", "182508.937500", "182510.937500", "182512.937500", "182514.937500", "182516.937500", "182518.937500", "182520.937500", "182522.937500", "182524.937500", "182526.937500", "182528.937500", "182530.937500", "182532.937500", "182534.937500", "182536.937500", "182538.937500", "182540.937500", "182542.937500", "182544.937500", "182546.937500", "182548.937500", "182550.937500", "182552.937500", "182554.937500", "182556.937500", "182558.937500", "182600.937500", "182602.937500", "182604.937500", "182606.937500", "182608.937500", "182610.937500", "182612.937500", "182614.937500", "182616.937500", "182618.937500", "182620.937500", "182622.937500", "182624.937500", "182626.937500", "182628.937500", "182630.937500", "182632.937500", "182634.937500", "182636.937500", "182638.937500", "182640.937500", "182642.937500", "182644.937500", "182646.937500", "182648.937500", "182650.937500", "182652.937500", "182654.937500", "182656.937500", "182658.937500", "182700.937500", "182702.937500", "182704.937500", "182706.937500", "182708.937500", "182710.937500", "182712.937500", "182714.937500", "182716.937500", "182718.937500", "182720.937500", "182722.937500", "182724.937500", "182726.937500", "182728.937500", "182730.937500", "182732.937500", "182734.937500", "182736.937500", "182738.937500", "182740.937500", "182742.937500", "182744.937500", "182746.937500", "182748.937500", "182750.937500", "182752.937500", "182754.937500", "182756.937500", "182758.937500", "182800.937500", "182802.937500", "182804.937500", "182806.937500", "182808.937500", "182810.937500", "182812.937500", "182814.937500", "182816.937500", "182818.937500", "182820.937500", "182822.937500", "182824.937500", "182826.937500", "182828.937500", "182830.937500", "182832.937500", "182834.937500", "182836.937500", "182838.937500", "182840.937500", "182842.937500", "182844.937500", "182846.937500", "182848.937500", "182850.937500", "182852.937500", "182854.937500", "182856.937500", "182858.937500", "182900.937500", "182902.937500", "182904.937500", "182906.937500", "182908.937500", "182910.937500", "182912.937500", "182914.937500", "182916.937500", "182918.937500", "182920.937500", "182922.937500", "182924.937500", "182926.937500", "182928.937500", "182930.937500", "182932.937500", "182934.937500", "182936.937500", "182938.937500", "182940.937500", "182942.937500", "182944.937500", "182946.937500", "182948.937500", "182950.937500", "182952.937500", "182954.937500", "182956.937500", "182958.937500", "183000.937500", "183002.937500", "183004.937500", "183006.937500", "183008.937500", "183010.937500", "183012.937500", "183014.937500", "183016.937500", "183018.937500", "183020.937500", "183022.937500", "183024.937500", "183026.937500", "183028.937500", "183030.937500", "183032.937500", "183034.937500", "183036.937500", "183038.937500", "183040.937500", "183042.937500", "183044.937500", "183046.937500", "183048.937500", "183050.937500", "183052.937500", "183054.937500", "183056.937500"],
      "ContentTime": ["182151.884000", "182153.880000", "182155.880000", "182157.880000", "182159.880000", "182201.879000", "182203.879000", "182205.880000", "182207.880000", "182209.880000", "182211.880000", "182213.880000", "182215.880000", "182217.880000", "182219.879000", "182221.880000", "182223.880000", "182225.880000", "182227.880000", "182229.880000", "182231.880000", "182233.880000", "182235.880000", "182237.879000", "182239.880000", "182241.880000", "182243.880000", "182245.880000", "182247.880000", "182249.880000", "182251.880000", "182253.879000", "182255.879000", "182257.880000", "182259.880000", "182301.880000", "182303.880000", "182305.880000", "182307.880000", "182309.880000", "182311.879000", "182313.879000", "182315.880000", "182317.880000", "182319.880000", "182321.880000", "182323.880000", "182325.880000", "182327.880000", "182329.879000", "182331.880000", "182333.880000", "182335.880000", "182337.880000", "182339.880000", "182341.880000", "182343.880000", "182345.880000", "182347.879000", "182349.880000", "182351.880000", "182353.880000", "182355.880000", "182357.880000", "182359.880000", "182401.880000", "182403.879000", "182405.879000", "182407.880000", "182409.880000", "182411.880000", "182413.880000", "182415.880000", "182417.880000", "182419.880000", "182421.879000", "182423.879000", "182425.880000", "182427.880000", "182429.880000", "182431.880000", "182433.880000", "182435.880000", "182437.880000", "182439.879000", "182441.880000", "182443.880000", "182445.880000", "182447.880000", "182449.880000", "182451.880000", "182453.880000", "182455.880000", "182457.879000", "182459.880000", "182501.880000", "182503.880000", "182505.880000", "182507.880000", "182509.880000", "182511.880000", "182513.879000", "182515.879000", "182517.880000", "182519.880000", "182521.880000", "182523.880000", "182525.880000", "182527.880000", "182529.880000", "182531.879000", "182533.879000", "182535.880000", "182537.880000", "182539.880000", "182541.880000", "182543.880000", "182545.880000", "182547.880000", "182549.879000", "182551.880000", "182553.880000", "182555.880000", "182557.880000", "182559.880000", "182601.880000", "182603.880000", "182605.880000", "182607.879000", "182609.880000", "182611.880000", "182613.880000", "182615.880000", "182617.880000", "182619.880000", "182621.880000", "182623.879000", "182625.879000", "182627.880000", "182629.880000", "182631.880000", "182633.880000", "182635.880000", "182637.880000", "182639.880000", "182641.879000", "182643.879000", "182645.880000", "182647.880000", "182649.880000", "182651.880000", "182653.880000", "182655.880000", "182657.880000", "182659.879000", "182701.880000", "182703.880000", "182705.880000", "182707.880000", "182709.880000", "182711.880000", "182713.880000", "182715.880000", "182717.879000", "182719.880000", "182721.880000", "182723.880000", "182725.880000", "182727.880000", "182729.880000", "182731.880000", "182733.879000", "182735.879000", "182737.880000", "182739.880000", "182741.880000", "182743.880000", "182745.880000", "182747.880000", "182749.880000", "182751.879000", "182753.880000", "182755.880000", "182757.880000", "182759.880000", "182801.880000", "182803.880000", "182805.880000", "182807.880000", "182809.894000", "182811.880000", "182813.880000", "182815.880000", "182817.880000", "182819.880000", "182821.880000", "182823.880000", "182825.880000", "182827.879000", "182829.880000", "182831.880000", "182833.880000", "182835.880000", "182837.880000", "182839.880000", "182841.880000", "182843.879000", "182845.879000", "182847.880000", "182849.880000", "182851.880000", "182853.880000", "182855.880000", "182857.880000", "182859.880000", "182901.879000", "182903.880000", "182905.880000", "182907.880000", "182909.880000", "182911.880000", "182913.880000", "182915.880000", "182917.880000", "182919.879000", "182921.880000", "182923.880000", "182925.880000", "182927.880000", "182929.880000", "182931.880000", "182933.880000", "182935.880000", "182937.879000", "182939.880000", "182941.880000", "182943.880000", "182945.880000", "182947.880000", "182949.880000", "182951.880000", "182953.879000", "182955.879000", "182957.880000", "182959.880000", "183001.880000", "183003.880000", "183005.880000", "183007.880000", "183009.880000", "183011.879000", "183013.880000", "183015.880000", "183017.880000", "183019.880000", "183021.880000", "183023.880000", "183025.880000", "183027.880000", "183029.879000", "183031.880000", "183033.880000", "183035.880000", "183037.880000", "183039.880000", "183041.880000", "183043.880000", "183045.879000", "183047.879000", "183049.880000", "183051.880000", "183053.880000", "183055.880000", "183057.880000", "183059.619000"],
      "InstanceCreationTime": ["182151.884000", "182153.880000", "182155.880000", "182157.880000", "182159.880000", "182201.879000", "182203.879000", "182205.880000", "182207.880000", "182209.880000", "182211.880000", "182213.880000", "182215.880000", "182217.880000", "182219.879000", "182221.880000", "182223.880000", "182225.880000", "182227.880000", "182229.880000", "182231.880000", "182233.880000", "182235.880000", "182237.879000", "182239.880000", "182241.880000", "182243.880000", "182245.880000", "182247.880000", "182249.880000", "182251.880000", "182253.879000", "182255.879000", "182257.880000", "182259.880000", "182301.880000", "182303.880000", "182305.880000", "182307.880000", "182309.880000", "182311.879000", "182313.879000", "182315.880000", "182317.880000", "182319.880000", "182321.880000", "182323.880000", "182325.880000", "182327.880000", "182329.879000", "182331.880000", "182333.880000", "182335.880000", "182337.880000", "182339.880000", "182341.880000", "182343.880000", "182345.880000", "182347.879000", "182349.880000", "182351.880000", "182353.880000", "182355.880000", "182357.880000", "182359.880000", "182401.880000", "182403.879000", "182405.879000", "182407.880000", "182409.880000", "182411.880000", "182413.880000", "182415.880000", "182417.880000", "182419.880000", "182421.879000", "182423.879000", "182425.880000", "182427.880000", "182429.880000", "182431.880000", "182433.880000", "182435.880000", "182437.880000", "182439.879000", "182441.880000", "182443.880000", "182445.880000", "182447.880000", "182449.880000", "182451.880000", "182453.880000", "182455.880000", "182457.879000", "182459.880000", "182501.880000", "182503.880000", "182505.880000", "182507.880000", "182509.880000", "182511.880000", "182513.879000", "182515.879000", "182517.880000", "182519.880000", "182521.880000", "182523.880000", "182525.880000", "182527.880000", "182529.880000", "182531.879000", "182533.879000", "182535.880000", "182537.880000", "182539.880000", "182541.880000", "182543.880000", "182545.880000", "182547.880000", "182549.879000", "182551.880000", "182553.880000", "182555.880000", "182557.880000", "182559.880000", "182601.880000", "182603.880000", "182605.880000", "182607.879000", "182609.880000", "182611.880000", "182613.880000", "182615.880000", "182617.880000", "182619.880000", "182621.880000", "182623.879000", "182625.879000", "182627.880000", "182629.880000", "182631.880000", "182633.880000", "182635.880000", "182637.880000", "182639.880000", "182641.879000", "182643.879000", "182645.880000", "182647.880000", "182649.880000", "182651.880000", "182653.880000", "182655.880000", "182657.880000", "182659.879000", "182701.880000", "182703.880000", "182705.880000", "182707.880000", "182709.880000", "182711.880000", "182713.880000", "182715.880000", "182717.879000", "182719.880000", "182721.880000", "182723.880000", "182725.880000", "182727.880000", "182729.880000", "182731.880000", "182733.879000", "182735.879000", "182737.880000", "182739.880000", "182741.880000", "182743.880000", "182745.880000", "182747.880000", "182749.880000", "182751.879000", "182753.880000", "182755.880000", "182757.880000", "182759.880000", "182801.880000", "182803.880000", "182805.880000", "182807.880000", "182809.894000", "182811.880000", "182813.880000", "182815.880000", "182817.880000", "182819.880000", "182821.880000", "182823.880000", "182825.880000", "182827.879000", "182829.880000", "182831.880000", "182833.880000", "182835.880000", "182837.880000", "182839.880000", "182841.880000", "182843.879000", "182845.879000", "182847.880000", "182849.880000", "182851.880000", "182853.880000", "182855.880000", "182857.880000", "182859.880000", "182901.879000", "182903.880000", "182905.880000", "182907.880000", "182909.880000", "182911.880000", "182913.880000", "182915.880000", "182917.880000", "182919.879000", "182921.880000", "182923.880000", "182925.880000", "182927.880000", "182929.880000", "182931.880000", "182933.880000", "182935.880000", "182937.879000", "182939.880000", "182941.880000", "182943.880000", "182945.880000", "182947.880000", "182949.880000", "182951.880000", "182953.879000", "182955.879000", "182957.880000", "182959.880000", "183001.880000", "183003.880000", "183005.880000", "183007.880000", "183009.880000", "183011.879000", "183013.880000", "183015.880000", "183017.880000", "183019.880000", "183021.880000", "183023.880000", "183025.880000", "183027.880000", "183029.879000", "183031.880000", "183033.880000", "183035.880000", "183037.880000", "183039.880000", "183041.880000", "183043.880000", "183045.879000", "183047.879000", "183049.880000", "183051.880000", "183053.880000", "183055.880000", "183057.880000", "183059.619000"],
      "InstanceNumber": [1, 2, 3, 4, 5, 6, 7, 8, 9, 10, 11, 12, 13, 14, 15, 16, 17, 18, 19, 20, 21, 22, 23, 24, 25, 26, 27, 28, 29, 30, 31, 32, 33, 34, 35, 36, 37, 38, 39, 40, 41, 42, 43, 44, 45, 46, 47, 48, 49, 50, 51, 52, 53, 54, 55, 56, 57, 58, 59, 60, 61, 62, 63, 64, 65, 66, 67, 68, 69, 70, 71, 72, 73, 74, 75, 76, 77, 78, 79, 80, 81, 82, 83, 84, 85, 86, 87, 88, 89, 90, 91, 92, 93, 94, 95, 96, 97, 98, 99, 100, 101, 102, 103, 104, 105, 106, 107, 108, 109, 110, 111, 112, 113, 114, 115, 116, 117, 118, 119, 120, 121, 122, 123, 124, 125, 126, 127, 128, 129, 130, 131, 132, 133, 134, 135, 136, 137, 138, 139, 140, 141, 142, 143, 144, 145, 146, 147, 148, 149, 150, 151, 152, 153, 154, 155, 156, 157, 158, 159, 160, 161, 162, 163, 164, 165, 166, 167, 168, 169, 170, 171, 172, 173, 174, 175, 176, 177, 178, 179, 180, 181, 182, 183, 184, 185, 186, 187, 188, 189, 190, 191, 192, 193, 194, 195, 196, 197, 198, 199, 200, 201, 202, 203, 204, 205, 206, 207, 208, 209, 210, 211, 212, 213, 214, 215, 216, 217, 218, 219, 220, 221, 222, 223, 224, 225, 226, 227, 228, 229, 230, 231, 232, 233, 234, 235, 236, 237, 238, 239, 240, 241, 242, 243, 244, 245, 246, 247, 248, 249, 250, 251, 252, 253, 254, 255, 256, 257, 258, 259, 260, 261, 262, 263, 264, 265, 266, 267, 268, 269, 270, 271, 272, 273, 274, 275],
      "LargestImagePixelValue": [1647, 1664, 1620, 1578, 1584, 1583, 2194, 1575, 1584, 1575, 1582, 1575, 1581, 1575, 1571, 1570, 1569, 1574, 1587, 1575, 1573, 1573, 1566, 1569, 1574, 1573, 1813, 1578, 1579, 1578, 1735, 1734, 1568, 1576, 1747, 1574, 1575, 1575, 1578, 1578, 1575, 1581, 1570, 1572, 1573, 1574, 1577, 1571, 1903, 1572, 1571, 1577, 1583, 1580, 1731, 1609, 1579, 1580, 1573, 1579, 1577, 1578, 1574, 1583, 1585, 1587, 1593, 1585, 1587, 1708, 1998, 1652, 1996, 1582, 1583, 1572, 1571, 1588, 1721, 1574, 1573, 1578, 1580, 1584, 1582, 1591, 1570, 1566, 1590, 1581, 1580, 1573, 1590, 1567, 1573, 1586, 1578, 1575, 1583, 1581, 1695, 1570, 1574, 1581, 1568, 1562, 1565, 1567, 1574, 1578, 1575, 1596, 1587, 1581, 1580, 2024, 1564, 1575, 1578, 1576, 1579, 1579, 1568, 1763, 1573, 1598, 1578, 1569, 1572, 1564, 1566, 1586, 1590, 1578, 1573, 2192, 2215, 1724, 1585, 1572, 1572, 1580, 1578, 1580, 1575, 1564, 1573, 1567, 1567, 1563, 1564, 1566, 1569, 1571, 1578, 1591, 1579, 1571, 1574, 1580, 1572, 1583, 1581, 1579, 2199, 2126, 1645, 1580, 1574, 1599, 1576, 1573, 1573, 1572, 1616, 1593, 1580, 1590, 1559, 1588, 2211, 1587, 1596, 1600, 1584, 1581, 1582, 1593, 1580, 1579, 1575, 1580, 1577, 1580, 1590, 1576, 1569, 1583, 1584, 1584, 1591, 1579, 1583, 2102, 1588, 1583, 1573, 1578, 1582, 1574, 1581, 1584, 1581, 1571, 1578, 1734, 1587, 1579, 1582, 1573, 1576, 1588, 1594, 1727, 1591, 1576, 1580, 1586, 1826, 1589, 1620, 1579, 2084, 2174, 1588, 1591, 1589, 1593, 1584, 1587, 1584, 1586, 1734, 1586, 1703, 2084, 1591, 1603, 1581, 1613, 2081, 1586, 1587, 1586, 1583, 1579, 1583, 1587, 1588, 1585, 1583, 1578, 1581, 1580, 1590, 1604, 1589, 1574, 2113, 1842, 1586, 1591, 1595, 1744, 1591],
      "WindowCenter": [680.0, 678.0, 677.0, 676.0, 676.0, 676.0, 677.0, 676.0, 676.0, 676.0, 676.0, 676.0, 676.0, 677.0, 677.0, 677.0, 677.0, 677.0, 678.0, 678.0, 678.0, 677.0, 678.0, 677.0, 678.0, 678.0, 678.0, 677.0, 677.0, 677.0, 677.0, 677.0, 677.0, 677.0, 677.0, 677.0, 677.0, 677.0, 677.0, 677.0, 677.0, 677.0, 677.0, 677.0, 678.0, 677.0, 677.0, 677.0, 678.0, 677.0, 677.0, 677.0, 677.0, 677.0, 677.0, 676.0, 676.0, 677.0, 677.0, 677.0, 676.0, 676.0, 677.0, 677.0, 677.0, 678.0, 678.0, 678.0, 678.0, 678.0, 679.0, 677.0, 678.0, 677.0, 677.0, 677.0, 677.0, 677.0, 677.0, 676.0, 676.0, 676.0, 676.0, 677.0, 676.0, 677.0, 676.0, 676.0, 676.0, 676.0, 677.0, 676.0, 676.0, 676.0, 676.0, 676.0, 676.0, 677.0, 677.0, 677.0, 677.0, 676.0, 676.0, 676.0, 676.0, 676.0, 677.0, 676.0, 676.0, 677.0, 677.0, 678.0, 678.0, 678.0, 677.0, 678.0, 676.0, 677.0, 676.0, 676.0, 677.0, 677.0, 677.0, 677.0, 676.0, 677.0, 676.0, 676.0, 677.0, 677.0, 677.0, 677.0, 677.0, 678.0, 678.0, 679.0, 678.0, 677.0, 677.0, 677.0, 676.0, 676.0, 677.0, 677.0, 677.0, 677.0, 677.0, 677.0, 677.0, 676.0, 676.0, 677.0, 677.0, 677.0, 677.0, 677.0, 677.0, 677.0, 677.0, 677.0, 677.0, 677.0, 677.0, 677.0, 678.0, 677.0, 675.0, 675.0, 676.0, 676.0, 676.0, 676.0, 676.0, 676.0, 676.0, 676.0, 677.0, 677.0, 678.0, 677.0, 678.0, 676.0, 677.0, 677.0, 677.0, 677.0, 676.0, 677.0, 676.0, 676.0, 676.0, 676.0, 675.0, 675.0, 676.0, 676.0, 676.0, 677.0, 677.0, 677.0, 678.0, 678.0, 677.0, 678.0, 677.0, 677.0, 677.0, 677.0, 677.0, 676.0, 676.0, 677.0, 677.0, 676.0, 677.0, 677.0, 676.0, 676.0, 675.0, 676.0, 676.0, 677.0, 677.0, 677.0, 677.0, 677.0, 677.0, 676.0, 677.0, 676.0, 678.0, 678.0, 678.0, 677.0, 675.0, 676.0, 676.0, 677.0, 677.0, 677.0, 677.0, 677.0, 677.0, 677.0, 677.0, 678.0, 677.0, 677.0, 677.0, 676.0, 677.0, 676.0, 677.0, 676.0, 675.0, 676.0, 675.0, 675.0, 676.0, 676.0, 676.0, 676.0, 676.0, 676.0, 676.0, 678.0, 678.0, 677.0, 678.0, 676.0, 675.0, 676.0, 676.0, 677.0, 676.0],
      "WindowWidth": [1492.0, 1486.0, 1483.0, 1482.0, 1481.0, 1481.0, 1485.0, 1480.0, 1481.0, 1481.0, 1481.0, 1482.0, 1481.0, 1482.0, 1482.0, 1482.0, 1482.0, 1483.0, 1486.0, 1487.0, 1486.0, 1485.0, 1485.0, 1485.0, 1486.0, 1486.0, 1487.0, 1485.0, 1484.0, 1484.0, 1485.0, 1484.0, 1483.0, 1484.0, 1485.0, 1484.0, 1484.0, 1483.0, 1483.0, 1483.0, 1484.0, 1483.0, 1484.0, 1485.0, 1485.0, 1485.0, 1485.0, 1483.0, 1487.0, 1485.0, 1484.0, 1484.0, 1483.0, 1483.0, 1484.0, 1482.0, 1482.0, 1483.0, 1483.0, 1482.0, 1482.0, 1481.0, 1483.0, 1484.0, 1485.0, 1486.0, 1487.0, 1486.0, 1487.0, 1487.0, 1489.0, 1485.0, 1487.0, 1483.0, 1484.0, 1484.0, 1484.0, 1483.0, 1482.0, 1481.0, 1481.0, 1480.0, 1482.0, 1482.0, 1482.0, 1483.0, 1481.0, 1482.0, 1482.0, 1481.0, 1483.0, 1481.0, 1481.0, 1481.0, 1481.0, 1481.0, 1482.0, 1484.0, 1483.0, 1483.0, 1483.0, 1482.0, 1482.0, 1480.0, 1480.0, 1481.0, 1483.0, 1482.0, 1481.0, 1483.0, 1484.0, 1486.0, 1487.0, 1486.0, 1483.0, 1486.0, 1482.0, 1483.0, 1482.0, 1482.0, 1483.0, 1484.0, 1483.0, 1484.0, 1482.0, 1483.0, 1482.0, 1482.0, 1484.0, 1484.0, 1484.0, 1484.0, 1485.0, 1486.0, 1487.0, 1489.0, 1487.0, 1483.0, 1482.0, 1483.0, 1482.0, 1482.0, 1483.0, 1484.0, 1482.0, 1483.0, 1482.0, 1483.0, 1483.0, 1482.0, 1482.0, 1483.0, 1482.0, 1482.0, 1483.0, 1483.0, 1484.0, 1483.0, 1483.0, 1484.0, 1484.0, 1483.0, 1484.0, 1483.0, 1487.0, 1484.0, 1478.0, 1479.0, 1480.0, 1481.0, 1481.0, 1481.0, 1480.0, 1480.0, 1481.0, 1481.0, 1484.0, 1484.0, 1486.0, 1484.0, 1487.0, 1479.0, 1483.0, 1484.0, 1483.0, 1482.0, 1482.0, 1482.0, 1480.0, 1480.0, 1480.0, 1480.0, 1479.0, 1479.0, 1480.0, 1481.0, 1482.0, 1482.0, 1482.0, 1483.0, 1486.0, 1486.0, 1485.0, 1487.0, 1482.0, 1483.0, 1484.0, 1483.0, 1482.0, 1482.0, 1481.0, 1483.0, 1483.0, 1482.0, 1482.0, 1484.0, 1481.0, 1480.0, 1479.0, 1481.0, 1481.0, 1482.0, 1484.0, 1484.0, 1483.0, 1482.0, 1482.0, 1482.0, 1484.0, 1482.0, 1486.0, 1485.0, 1485.0, 1484.0, 1479.0, 1481.0, 1482.0, 1484.0, 1484.0, 1484.0, 1483.0, 1483.0, 1485.0, 1483.0, 1484.0, 1487.0, 1482.0, 1483.0, 1483.0, 1482.0, 1484.0, 1481.0, 1484.0, 1482.0, 1479.0, 1479.0, 1479.0, 1479.0, 1479.0, 1479.0, 1481.0, 1481.0, 1481.0, 1480.0, 1482.0, 1485.0, 1486.0, 1484.0, 1486.0, 1482.0, 1478.0, 1480.0, 1481.0, 1483.0, 1481.0]
    },
    "slices": {}
  }
}