{
  "AcquisitionMatrixPE": 64,
  "AcquisitionNumber": 1,
  "AcquisitionTime": "16:59:58.915000",
  "BandwidthPerPixelPhaseEncode": 31.888,
  "BaseResolution": 64,
  "BodyPartExamined": "HEAD",
  "CoilCombinationMethod": "Sum of Squares",
  "ConsistencyInfo": "N4_VE11C_LATEST_20160120",
  "ConversionSoftware": "dcm2niix",
  "ConversionSoftwareVersion": "v1.0.20211006",
  "DerivedVendorReportedEchoSpacing": 0.000489996,
  "DeviceSerialNumber": "167048",
  "EchoTime": 0.03,
  "EchoTrainLength": 64,
  "EffectiveEchoSpacing": 0.000489996,
  "FlipAngle": 90,
  "ImageOrientationPatientDICOM": [0.999562, -0.026904, -0.0123524, 0.0244287, 0.98528, -0.169191],
  "ImageType": [
    "ORIGINAL",
    "PRIMARY",
    "M",
    "ND",
    "NORM",
    "MOSAIC"
],
  "ImagingFrequency": 123.261,
  "InPlanePhaseEncodingDirectionDICOM": "COL",
  "InstitutionAddress": "Azinhaga Santa Comba StreetNo,Coimbra,District,PT,3000",
  "InstitutionName": "ICNAS",
  "MRAcquisitionType": "2D",
  "MagneticFieldStrength": 3,
  "Manufacturer": "Siemens",
  "ManufacturersModelName": "Prisma_fit",
  "MatrixCoilMode": "SENSE",
  "Modality": "MR",
  "PartialFourier": 1,
  "PatientPosition": "HFS",
  "PercentPhaseFOV": 100,
  "PercentSampling": 100,
  "PhaseEncodingDirection": "j-",
  "PhaseEncodingSteps": 64,
  "PhaseResolution": 1,
  "PixelBandwidth": 2365,
  "ProcedureStepDescription": "ICNAS^Cranio",
  "ProtocolName": "rtfmri_neurofeedback_MTRun4",
  "PulseSequenceDetails": "%SiemensSeq%\\ep2d_bold",
  "ReceiveCoilActiveElements": "HE1-4",
  "ReceiveCoilName": "HeadNeck_20",
  "ReconMatrixPE": 64,
  "RepetitionTime": 2,
  "SAR": 0.11049,
  "ScanOptions": "FS",
  "ScanningSequence": "EP",
  "SequenceName": "*epfid2d1_64",
  "SequenceVariant": "SK",
  "SeriesDescription": "rtfmri_neurofeedback_MTRun4",
  "SeriesNumber": 7,
  "ShimSetting": [10146, 2117, 8349, 402, 26, 82, 6, -24],
  "SliceThickness": 3,
  "SliceTiming": [0, 1.02, 0.06, 1.08, 0.12, 1.14, 0.18, 1.2, 0.24, 1.26, 0.3, 1.32, 0.36, 1.38, 0.42, 1.44, 0.48, 1.5, 0.54, 1.56, 0.6, 1.62, 0.66, 1.68, 0.72, 1.74, 0.78, 1.8, 0.84, 1.86, 0.9, 1.92, 0.96],
  "SoftwareVersions": "syngo MR E11",
  "SpacingBetweenSlices": 3,
  "StationName": "MRC35377",
  "TaskName": "nf",
  "TotalReadoutTime": 0.0308698,
  "TxRefAmp": 240.107,
  "dcmmeta_affine": [
    [-3.9982481002807617, 0.09771479666233063, -0.05016746371984482, 123.08291625976562],
    [0.10761599987745285, 3.941119909286499, -0.5064454078674316, -103.04720306396484],
    [-0.04940960183739662, 0.6767640113830566, 2.956516981124878, -63.06120681762695],
    [0.0, 0.0, 0.0, 1.0]
],
  "dcmmeta_reorient_transform": [
    [0.0, -1.0, 0.0, 63.0],
    [1.0, 0.0, 0.0, 0.0],
    [0.0, 0.0, 1.0, 0.0],
    [0.0, 0.0, 0.0, 1.0]
],
  "dcmmeta_shape": [64, 64, 33, 275],
  "dcmmeta_slice_dim": 2,
  "dcmmeta_version": 0.6,
  "global": {
    "const": {
      "AcquisitionMatrix": [64, 0, 0, 64],
      "AngioFlag": "N",
      "BitsAllocated": 16,
      "BitsStored": 12,
      "BodyPartExamined": "HEAD",
      "Columns": 384,
      "EchoNumbers": 1,
      "EchoTime": 30.0,
      "EchoTrainLength": 64,
      "FlipAngle": 90.0,
      "HighBit": 11,
      "ImageOrientationPatient": [0.999562, -0.026904, -0.0123524, 0.0244287, 0.98528, -0.169191],
      "ImagePositionPatient": [-784.593, -758.604, 95.7627],
      "ImageType": [
        "ORIGINAL",
        "PRIMARY",
        "M",
        "ND",
        "NORM",
        "MOSAIC"
],
      "ImagedNucleus": "1H",
      "ImagingFrequency": 123.261,
      "InPlanePhaseEncodingDirection": "COL",
      "MRAcquisitionType": "2D",
      "MagneticFieldStrength": 3.0,
      "Manufacturer": "SIEMENS",
      "ManufacturerModelName": "Prisma_fit",
      "Modality": "MR",
      "NumberOfAverages": 1.0,
      "NumberOfFrames": 1,
      "NumberOfPhaseEncodingSteps": 64,
      "PercentPhaseFieldOfView": 100.0,
      "PercentSampling": 100.0,
      "PerformedProcedureStepStartTime": "155111.867000",
      "PhotometricInterpretation": "MONOCHROME2",
      "PixelBandwidth": 2365.0,
      "PixelRepresentation": 0,
      "PixelSpacing": [4.0, 4.0],
      "ProtocolName": "rtfmri_neurofeedback_MTRun4",
      "RepetitionTime": 2000.0,
      "Rows": 384,
      "SAR": 0.11049,
      "SamplesPerPixel": 1,
      "ScanOptions": "FS",
      "ScanningSequence": "EP",
      "SequenceName": "*epfid2d1_64",
      "SequenceVariant": "SK",
      "SeriesDescription": "rtfmri_neurofeedback_MTRun4",
      "SeriesNumber": 7,
      "SeriesTime": "170001.777000",
      "SliceLocation": -46.8095,
      "SliceThickness": 3.0,
      "SmallestImagePixelValue": 0,
      "SoftwareVersions": "syngo MR E11",
      "SpacingBetweenSlices": 3.0,
      "SpecificCharacterSet": "ISO_IR 100",
      "StudyID": "940",
      "StudyTime": "155111.791000",
      "TransmitCoilName": "Body",
      "VariableFlipAngleFlag": "N",
      "WindowCenterWidthExplanation": "Algo1",
      "dBdt": 0.0},
    "slices": {}
  },
  "time": {
    "samples": {
      "AcquisitionNumber": [1, 2, 3, 4, 5, 6, 7, 8, 9, 10, 11, 12, 13, 14, 15, 16, 17, 18, 19, 20, 21, 22, 23, 24, 25, 26, 27, 28, 29, 30, 31, 32, 33, 34, 35, 36, 37, 38, 39, 40, 41, 42, 43, 44, 45, 46, 47, 48, 49, 50, 51, 52, 53, 54, 55, 56, 57, 58, 59, 60, 61, 62, 63, 64, 65, 66, 67, 68, 69, 70, 71, 72, 73, 74, 75, 76, 77, 78, 79, 80, 81, 82, 83, 84, 85, 86, 87, 88, 89, 90, 91, 92, 93, 94, 95, 96, 97, 98, 99, 100, 101, 102, 103, 104, 105, 106, 107, 108, 109, 110, 111, 112, 113, 114, 115, 116, 117, 118, 119, 120, 121, 122, 123, 124, 125, 126, 127, 128, 129, 130, 131, 132, 133, 134, 135, 136, 137, 138, 139, 140, 141, 142, 143, 144, 145, 146, 147, 148, 149, 150, 151, 152, 153, 154, 155, 156, 157, 158, 159, 160, 161, 162, 163, 164, 165, 166, 167, 168, 169, 170, 171, 172, 173, 174, 175, 176, 177, 178, 179, 180, 181, 182, 183, 184, 185, 186, 187, 188, 189, 190, 191, 192, 193, 194, 195, 196, 197, 198, 199, 200, 201, 202, 203, 204, 205, 206, 207, 208, 209, 210, 211, 212, 213, 214, 215, 216, 217, 218, 219, 220, 221, 222, 223, 224, 225, 226, 227, 228, 229, 230, 231, 232, 233, 234, 235, 236, 237, 238, 239, 240, 241, 242, 243, 244, 245, 246, 247, 248, 249, 250, 251, 252, 253, 254, 255, 256, 257, 258, 259, 260, 261, 262, 263, 264, 265, 266, 267, 268, 269, 270, 271, 272, 273, 274, 275],
      "AcquisitionTime": ["165958.915000", "170000.915000", "170002.915000", "170004.915000", "170006.915000", "170008.915000", "170010.915000", "170012.915000", "170014.915000", "170016.915000", "170018.915000", "170020.915000", "170022.915000", "170024.915000", "170026.915000", "170028.915000", "170030.915000", "170032.915000", "170034.915000", "170036.915000", "170038.915000", "170040.915000", "170042.915000", "170044.915000", "170046.915000", "170048.915000", "170050.915000", "170052.915000", "170054.915000", "170056.915000", "170058.915000", "170100.915000", "170102.915000", "170104.915000", "170106.915000", "170108.915000", "170110.915000", "170112.915000", "170114.915000", "170116.915000", "170118.915000", "170120.915000", "170122.915000", "170124.915000", "170126.915000", "170128.915000", "170130.915000", "170132.915000", "170134.915000", "170136.915000", "170138.915000", "170140.915000", "170142.915000", "170144.915000", "170146.915000", "170148.915000", "170150.915000", "170152.915000", "170154.915000", "170156.915000", "170158.915000", "170200.915000", "170202.915000", "170204.915000", "170206.915000", "170208.915000", "170210.915000", "170212.915000", "170214.915000", "170216.915000", "170218.915000", "170220.915000", "170222.915000", "170224.915000", "170226.915000", "170228.915000", "170230.915000", "170232.915000", "170234.915000", "170236.915000", "170238.915000", "170240.915000", "170242.915000", "170244.915000", "170246.915000", "170248.915000", "170250.915000", "170252.915000", "170254.915000", "170256.915000", "170258.915000", "170300.915000", "170302.915000", "170304.915000", "170306.915000", "170308.915000", "170310.915000", "170312.915000", "170314.915000", "170316.915000", "170318.915000", "170320.915000", "170322.915000", "170324.915000", "170326.915000", "170328.915000", "170330.915000", "170332.915000", "170334.915000", "170336.915000", "170338.915000", "170340.915000", "170342.915000", "170344.915000", "170346.915000", "170348.915000", "170350.915000", "170352.915000", "170354.915000", "170356.915000", "170358.915000", "170400.915000", "170402.915000", "170404.915000", "170406.915000", "170408.915000", "170410.915000", "170412.915000", "170414.915000", "170416.915000", "170418.915000", "170420.915000", "170422.915000", "170424.915000", "170426.915000", "170428.915000", "170430.915000", "170432.915000", "170434.915000", "170436.915000", "170438.915000", "170440.915000", "170442.915000", "170444.915000", "170446.915000", "170448.915000", "170450.915000", "170452.915000", "170454.915000", "170456.915000", "170458.915000", "170500.915000", "170502.915000", "170504.915000", "170506.915000", "170508.915000", "170510.915000", "170512.915000", "170514.915000", "170516.915000", "170518.915000", "170520.915000", "170522.915000", "170524.915000", "170526.915000", "170528.915000", "170530.915000", "170532.915000", "170534.915000", "170536.915000", "170538.915000", "170540.915000", "170542.915000", "170544.915000", "170546.915000", "170548.915000", "170550.915000", "170552.915000", "170554.915000", "170556.915000", "170558.915000", "170600.915000", "170602.915000", "170604.915000", "170606.915000", "170608.915000", "170610.915000", "170612.915000", "170614.915000", "170616.915000", "170618.915000", "170620.915000", "170622.915000", "170624.915000", "170626.915000", "170628.915000", "170630.915000", "170632.915000", "170634.915000", "170636.915000", "170638.915000", "170640.915000", "170642.915000", "170644.915000", "170646.915000", "170648.915000", "170650.915000", "170652.915000", "170654.915000", "170656.915000", "170658.915000", "170700.915000", "170702.915000", "170704.915000", "170706.915000", "170708.915000", "170710.915000", "170712.915000", "170714.915000", "170716.915000", "170718.915000", "170720.915000", "170722.915000", "170724.915000", "170726.915000", "170728.915000", "170730.915000", "170732.915000", "170734.915000", "170736.915000", "170738.915000", "170740.915000", "170742.915000", "170744.915000", "170746.915000", "170748.915000", "170750.915000", "170752.915000", "170754.915000", "170756.915000", "170758.915000", "170800.915000", "170802.915000", "170804.915000", "170806.915000", "170808.915000", "170810.915000", "170812.915000", "170814.915000", "170816.915000", "170818.915000", "170820.915000", "170822.915000", "170824.915000", "170826.915000", "170828.915000", "170830.915000", "170832.915000", "170834.915000", "170836.915000", "170838.915000", "170840.915000", "170842.915000", "170844.915000", "170846.915000", "170848.915000", "170850.915000", "170852.915000", "170854.915000", "170856.915000", "170858.915000", "170900.915000", "170902.915000", "170904.915000", "170906.915000"],
      "ContentTime": ["170001.780000", "170003.776000", "170005.776000", "170007.776000", "170009.777000", "170011.776000", "170013.776000", "170015.776000", "170017.776000", "170019.776000", "170021.776000", "170023.776000", "170025.777000", "170027.777000", "170029.776000", "170031.776000", "170033.776000", "170035.776000", "170037.776000", "170039.776000", "170041.776000", "170043.777000", "170045.777000", "170047.776000", "170049.776000", "170051.776000", "170053.776000", "170055.776000", "170057.776000", "170059.776000", "170101.777000", "170103.776000", "170105.776000", "170107.776000", "170109.776000", "170111.776000", "170113.776000", "170115.776000", "170117.776000", "170119.777000", "170121.776000", "170123.776000", "170125.776000", "170127.776000", "170129.776000", "170131.776000", "170133.776000", "170135.777000", "170137.777000", "170139.776000", "170141.776000", "170143.776000", "170145.776000", "170147.776000", "170149.776000", "170151.776000", "170153.777000", "170155.777000", "170157.776000", "170159.776000", "170201.776000", "170203.776000", "170205.776000", "170207.776000", "170209.776000", "170211.777000", "170213.776000", "170215.776000", "170217.776000", "170219.776000", "170221.776000", "170223.776000", "170225.776000", "170227.777000", "170229.777000", "170231.788000", "170233.776000", "170235.776000", "170237.776000", "170239.776000", "170241.776000", "170243.776000", "170245.777000", "170247.777000", "170249.776000", "170251.776000", "170253.776000", "170255.776000", "170257.776000", "170259.776000", "170301.776000", "170303.777000", "170305.777000", "170307.776000", "170309.776000", "170311.776000", "170313.776000", "170315.776000", "170317.776000", "170319.776000", "170321.777000", "170323.776000", "170325.776000", "170327.776000", "170329.776000", "170331.776000", "170333.776000", "170335.776000", "170337.777000", "170339.777000", "170341.776000", "170343.776000", "170345.776000", "170347.776000", "170349.776000", "170351.776000", "170353.776000", "170355.777000", "170357.777000", "170359.776000", "170401.776000", "170403.776000", "170405.776000", "170407.776000", "170409.776000", "170411.776000", "170413.777000", "170415.777000", "170417.776000", "170419.776000", "170421.776000", "170423.776000", "170425.776000", "170427.776000", "170429.776000", "170431.777000", "170433.776000", "170435.776000", "170437.776000", "170439.776000", "170441.776000", "170443.776000", "170445.776000", "170447.777000", "170449.777000", "170451.776000", "170453.776000", "170455.776000", "170457.776000", "170459.776000", "170501.776000", "170503.776000", "170505.777000", "170507.777000", "170509.776000", "170511.776000", "170513.776000", "170515.776000", "170517.776000", "170519.776000", "170521.776000", "170523.777000", "170525.777000", "170527.776000", "170529.776000", "170531.776000", "170533.776000", "170535.776000", "170537.776000", "170539.776000", "170541.777000", "170543.776000", "170545.776000", "170547.776000", "170549.776000", "170551.776000", "170553.776000", "170555.776000", "170557.777000", "170559.777000", "170601.776000", "170603.776000", "170605.776000", "170607.776000", "170609.776000", "170611.776000", "170613.776000", "170615.777000", "170617.777000", "170619.776000", "170621.776000", "170623.776000", "170625.776000", "170627.776000", "170629.776000", "170631.776000", "170633.777000", "170635.777000", "170637.776000", "170639.776000", "170641.776000", "170643.776000", "170645.776000", "170647.776000", "170649.776000", "170651.777000", "170653.776000", "170655.776000", "170657.776000", "170659.776000", "170701.776000", "170703.776000", "170705.776000", "170707.777000", "170709.777000", "170711.776000", "170713.776000", "170715.776000", "170717.776000", "170719.776000", "170721.776000", "170723.776000", "170725.777000", "170727.777000", "170729.776000", "170731.776000", "170733.776000", "170735.776000", "170737.776000", "170739.776000", "170741.776000", "170743.777000", "170745.777000", "170747.776000", "170749.776000", "170751.776000", "170753.776000", "170755.776000", "170757.776000", "170759.776000", "170801.777000", "170803.776000", "170805.776000", "170807.776000", "170809.776000", "170811.776000", "170813.776000", "170815.776000", "170817.777000", "170819.777000", "170821.776000", "170823.776000", "170825.776000", "170827.776000", "170829.776000", "170831.776000", "170833.776000", "170835.777000", "170837.777000", "170839.776000", "170841.776000", "170843.776000", "170845.776000", "170847.776000", "170849.776000", "170851.776000", "170853.777000", "170855.776000", "170857.776000", "170859.776000", "170901.776000", "170903.776000", "170905.776000", "170907.776000", "170909.486000"],
      "InstanceCreationTime": ["170001.780000", "170003.776000", "170005.776000", "170007.776000", "170009.777000", "170011.776000", "170013.776000", "170015.776000", "170017.776000", "170019.776000", "170021.776000", "170023.776000", "170025.777000", "170027.777000", "170029.776000", "170031.776000", "170033.776000", "170035.776000", "170037.776000", "170039.776000", "170041.776000", "170043.777000", "170045.777000", "170047.776000", "170049.776000", "170051.776000", "170053.776000", "170055.776000", "170057.776000", "170059.776000", "170101.777000", "170103.776000", "170105.776000", "170107.776000", "170109.776000", "170111.776000", "170113.776000", "170115.776000", "170117.776000", "170119.777000", "170121.776000", "170123.776000", "170125.776000", "170127.776000", "170129.776000", "170131.776000", "170133.776000", "170135.777000", "170137.777000", "170139.776000", "170141.776000", "170143.776000", "170145.776000", "170147.776000", "170149.776000", "170151.776000", "170153.777000", "170155.777000", "170157.776000", "170159.776000", "170201.776000", "170203.776000", "170205.776000", "170207.776000", "170209.776000", "170211.777000", "170213.776000", "170215.776000", "170217.776000", "170219.776000", "170221.776000", "170223.776000", "170225.776000", "170227.777000", "170229.777000", "170231.788000", "170233.776000", "170235.776000", "170237.776000", "170239.776000", "170241.776000", "170243.776000", "170245.777000", "170247.777000", "170249.776000", "170251.776000", "170253.776000", "170255.776000", "170257.776000", "170259.776000", "170301.776000", "170303.777000", "170305.777000", "170307.776000", "170309.776000", "170311.776000", "170313.776000", "170315.776000", "170317.776000", "170319.776000", "170321.777000", "170323.776000", "170325.776000", "170327.776000", "170329.776000", "170331.776000", "170333.776000", "170335.776000", "170337.777000", "170339.777000", "170341.776000", "170343.776000", "170345.776000", "170347.776000", "170349.776000", "170351.776000", "170353.776000", "170355.777000", "170357.777000", "170359.776000", "170401.776000", "170403.776000", "170405.776000", "170407.776000", "170409.776000", "170411.776000", "170413.777000", "170415.777000", "170417.776000", "170419.776000", "170421.776000", "170423.776000", "170425.776000", "170427.776000", "170429.776000", "170431.777000", "170433.776000", "170435.776000", "170437.776000", "170439.776000", "170441.776000", "170443.776000", "170445.776000", "170447.777000", "170449.777000", "170451.776000", "170453.776000", "170455.776000", "170457.776000", "170459.776000", "170501.776000", "170503.776000", "170505.777000", "170507.777000", "170509.776000", "170511.776000", "170513.776000", "170515.776000", "170517.776000", "170519.776000", "170521.776000", "170523.777000", "170525.777000", "170527.776000", "170529.776000", "170531.776000", "170533.776000", "170535.776000", "170537.776000", "170539.776000", "170541.777000", "170543.776000", "170545.776000", "170547.776000", "170549.776000", "170551.776000", "170553.776000", "170555.776000", "170557.777000", "170559.777000", "170601.776000", "170603.776000", "170605.776000", "170607.776000", "170609.776000", "170611.776000", "170613.776000", "170615.777000", "170617.777000", "170619.776000", "170621.776000", "170623.776000", "170625.776000", "170627.776000", "170629.776000", "170631.776000", "170633.777000", "170635.777000", "170637.776000", "170639.776000", "170641.776000", "170643.776000", "170645.776000", "170647.776000", "170649.776000", "170651.777000", "170653.776000", "170655.776000", "170657.776000", "170659.776000", "170701.776000", "170703.776000", "170705.776000", "170707.777000", "170709.777000", "170711.776000", "170713.776000", "170715.776000", "170717.776000", "170719.776000", "170721.776000", "170723.776000", "170725.777000", "170727.777000", "170729.776000", "170731.776000", "170733.776000", "170735.776000", "170737.776000", "170739.776000", "170741.776000", "170743.777000", "170745.777000", "170747.776000", "170749.776000", "170751.776000", "170753.776000", "170755.776000", "170757.776000", "170759.776000", "170801.777000", "170803.776000", "170805.776000", "170807.776000", "170809.776000", "170811.776000", "170813.776000", "170815.776000", "170817.777000", "170819.777000", "170821.776000", "170823.776000", "170825.776000", "170827.776000", "170829.776000", "170831.776000", "170833.776000", "170835.777000", "170837.777000", "170839.776000", "170841.776000", "170843.776000", "170845.776000", "170847.776000", "170849.776000", "170851.776000", "170853.777000", "170855.776000", "170857.776000", "170859.776000", "170901.776000", "170903.776000", "170905.776000", "170907.776000", "170909.486000"],
      "InstanceNumber": [1, 2, 3, 4, 5, 6, 7, 8, 9, 10, 11, 12, 13, 14, 15, 16, 17, 18, 19, 20, 21, 22, 23, 24, 25, 26, 27, 28, 29, 30, 31, 32, 33, 34, 35, 36, 37, 38, 39, 40, 41, 42, 43, 44, 45, 46, 47, 48, 49, 50, 51, 52, 53, 54, 55, 56, 57, 58, 59, 60, 61, 62, 63, 64, 65, 66, 67, 68, 69, 70, 71, 72, 73, 74, 75, 76, 77, 78, 79, 80, 81, 82, 83, 84, 85, 86, 87, 88, 89, 90, 91, 92, 93, 94, 95, 96, 97, 98, 99, 100, 101, 102, 103, 104, 105, 106, 107, 108, 109, 110, 111, 112, 113, 114, 115, 116, 117, 118, 119, 120, 121, 122, 123, 124, 125, 126, 127, 128, 129, 130, 131, 132, 133, 134, 135, 136, 137, 138, 139, 140, 141, 142, 143, 144, 145, 146, 147, 148, 149, 150, 151, 152, 153, 154, 155, 156, 157, 158, 159, 160, 161, 162, 163, 164, 165, 166, 167, 168, 169, 170, 171, 172, 173, 174, 175, 176, 177, 178, 179, 180, 181, 182, 183, 184, 185, 186, 187, 188, 189, 190, 191, 192, 193, 194, 195, 196, 197, 198, 199, 200, 201, 202, 203, 204, 205, 206, 207, 208, 209, 210, 211, 212, 213, 214, 215, 216, 217, 218, 219, 220, 221, 222, 223, 224, 225, 226, 227, 228, 229, 230, 231, 232, 233, 234, 235, 236, 237, 238, 239, 240, 241, 242, 243, 244, 245, 246, 247, 248, 249, 250, 251, 252, 253, 254, 255, 256, 257, 258, 259, 260, 261, 262, 263, 264, 265, 266, 267, 268, 269, 270, 271, 272, 273, 274, 275],
      "LargestImagePixelValue": [2125, 1573, 1628, 2461, 1948, 1906, 1827, 2029, 1982, 1837, 1763, 1595, 1628, 1742, 1977, 1730, 2042, 1589, 1897, 1585, 1584, 1564, 2050, 1712, 1715, 2086, 1794, 2190, 1579, 1572, 2052, 2574, 1623, 1840, 1576, 2327, 1575, 1724, 1559, 1549, 1980, 1578, 1814, 2007, 1620, 1622, 1640, 1612, 2338, 2249, 1630, 1884, 2472, 1935, 1824, 1569, 1603, 1565, 1551, 1947, 1565, 2101, 2578, 2109, 1790, 1586, 1550, 2122, 1710, 1542, 2034, 1879, 2568, 1554, 1553, 2132, 1640, 1879, 1652, 1741, 1691, 2159, 1558, 1660, 1923, 1937, 1927, 1580, 1968, 1806, 2163, 1627, 1579, 1846, 2570, 1790, 1724, 1804, 1604, 1598, 2271, 1735, 2625, 1600, 1561, 2019, 1599, 1625, 1589, 1686, 1702, 1572, 1670, 2300, 1577, 1721, 2573, 1681, 1814, 1754, 1634, 1866, 2433, 1586, 2138, 1862, 1834, 1557, 2119, 1632, 1555, 1760, 2052, 1667, 1813, 1969, 2641, 2570, 1727, 1601, 1657, 1793, 1641, 1617, 2303, 1684, 2121, 1684, 1789, 1563, 1563, 2065, 1790, 2222, 1563, 1623, 2026, 1574, 1729, 2260, 1624, 1547, 1783, 1776, 1736, 2002, 1694, 2003, 1710, 1828, 1595, 1567, 1808, 1643, 1567, 1760, 1619, 1705, 2539, 1877, 2549, 2747, 1548, 1599, 1631, 1539, 2595, 1787, 1595, 1724, 1637, 1567, 1769, 2054, 1686, 1762, 1920, 1654, 1823, 1610, 1783, 2096, 2243, 2043, 1676, 1611, 2205, 1834, 1781, 1996, 1565, 1784, 2494, 1607, 1593, 1905, 1585, 1815, 1723, 1639, 1678, 1721, 1959, 2062, 1749, 2104, 2073, 2235, 1927, 1677, 2094, 1574, 1564, 1769, 1543, 2199, 1630, 1600, 1591, 2556, 1777, 1816, 1584, 1751, 1796, 1689, 1613, 2385, 1591, 2093, 2180, 1855, 1896, 2364, 1596, 1571, 2122, 1779, 1769, 1597, 1712, 2050, 2133, 1579, 1570, 2199, 1598, 1692, 1640, 2396, 1746, 1700, 1909, 2159, 1892],
      "WindowCenter": [699.0, 698.0, 698.0, 698.0, 696.0, 697.0, 697.0, 696.0, 696.0, 695.0, 695.0, 696.0, 696.0, 696.0, 697.0, 696.0, 697.0, 696.0, 697.0, 697.0, 698.0, 698.0, 698.0, 698.0, 698.0, 698.0, 697.0, 698.0, 698.0, 698.0, 698.0, 698.0, 696.0, 697.0, 696.0, 697.0, 695.0, 696.0, 695.0, 696.0, 697.0, 696.0, 697.0, 697.0, 697.0, 698.0, 699.0, 698.0, 700.0, 698.0, 697.0, 697.0, 698.0, 696.0, 696.0, 696.0, 696.0, 696.0, 696.0, 698.0, 697.0, 698.0, 697.0, 696.0, 696.0, 697.0, 696.0, 697.0, 697.0, 697.0, 699.0, 697.0, 698.0, 697.0, 697.0, 698.0, 696.0, 697.0, 697.0, 697.0, 696.0, 697.0, 696.0, 697.0, 697.0, 696.0, 696.0, 696.0, 697.0, 696.0, 697.0, 696.0, 697.0, 697.0, 698.0, 696.0, 696.0, 697.0, 697.0, 697.0, 699.0, 697.0, 698.0, 696.0, 696.0, 697.0, 697.0, 697.0, 697.0, 697.0, 698.0, 698.0, 698.0, 699.0, 697.0, 698.0, 699.0, 697.0, 697.0, 698.0, 697.0, 697.0, 698.0, 697.0, 698.0, 696.0, 697.0, 696.0, 698.0, 697.0, 697.0, 698.0, 698.0, 698.0, 698.0, 699.0, 699.0, 699.0, 697.0, 696.0, 696.0, 697.0, 697.0, 697.0, 698.0, 696.0, 697.0, 696.0, 697.0, 697.0, 697.0, 698.0, 697.0, 698.0, 697.0, 697.0, 699.0, 697.0, 697.0, 698.0, 697.0, 697.0, 698.0, 698.0, 697.0, 697.0, 697.0, 698.0, 696.0, 696.0, 696.0, 697.0, 697.0, 697.0, 697.0, 697.0, 698.0, 699.0, 700.0, 698.0, 698.0, 699.0, 696.0, 696.0, 696.0, 695.0, 697.0, 695.0, 695.0, 697.0, 697.0, 697.0, 698.0, 698.0, 697.0, 698.0, 698.0, 698.0, 699.0, 698.0, 698.0, 699.0, 698.0, 697.0, 697.0, 698.0, 698.0, 697.0, 697.0, 698.0, 697.0, 697.0, 698.0, 695.0, 697.0, 697.0, 696.0, 697.0, 697.0, 696.0, 698.0, 698.0, 698.0, 698.0, 697.0, 698.0, 700.0, 699.0, 699.0, 697.0, 698.0, 697.0, 697.0, 698.0, 697.0, 698.0, 696.0, 697.0, 698.0, 699.0, 697.0, 697.0, 697.0, 697.0, 698.0, 698.0, 698.0, 699.0, 698.0, 699.0, 698.0, 697.0, 697.0, 697.0, 697.0, 698.0, 698.0, 696.0, 696.0, 697.0, 698.0, 697.0, 697.0, 696.0, 698.0, 699.0, 698.0, 698.0, 697.0, 698.0, 696.0, 696.0, 697.0, 697.0, 696.0],
      "WindowWidth": [1532.0, 1527.0, 1527.0, 1529.0, 1522.0, 1524.0, 1524.0, 1522.0, 1521.0, 1520.0, 1520.0, 1521.0, 1522.0, 1522.0, 1524.0, 1522.0, 1525.0, 1522.0, 1527.0, 1524.0, 1526.0, 1527.0, 1529.0, 1526.0, 1527.0, 1529.0, 1525.0, 1529.0, 1529.0, 1526.0, 1527.0, 1528.0, 1521.0, 1524.0, 1522.0, 1525.0, 1519.0, 1521.0, 1519.0, 1521.0, 1524.0, 1522.0, 1526.0, 1526.0, 1525.0, 1528.0, 1529.0, 1528.0, 1533.0, 1529.0, 1525.0, 1525.0, 1528.0, 1522.0, 1522.0, 1520.0, 1521.0, 1522.0, 1523.0, 1526.0, 1526.0, 1527.0, 1524.0, 1521.0, 1521.0, 1523.0, 1523.0, 1526.0, 1525.0, 1525.0, 1530.0, 1524.0, 1527.0, 1524.0, 1525.0, 1528.0, 1522.0, 1525.0, 1524.0, 1525.0, 1522.0, 1524.0, 1522.0, 1524.0, 1523.0, 1522.0, 1523.0, 1523.0, 1526.0, 1523.0, 1526.0, 1523.0, 1524.0, 1525.0, 1527.0, 1522.0, 1522.0, 1524.0, 1524.0, 1526.0, 1530.0, 1525.0, 1529.0, 1522.0, 1523.0, 1526.0, 1524.0, 1525.0, 1524.0, 1525.0, 1527.0, 1528.0, 1528.0, 1531.0, 1525.0, 1527.0, 1532.0, 1523.0, 1525.0, 1526.0, 1524.0, 1525.0, 1529.0, 1523.0, 1527.0, 1523.0, 1525.0, 1522.0, 1526.0, 1523.0, 1525.0, 1528.0, 1527.0, 1526.0, 1529.0, 1530.0, 1531.0, 1531.0, 1524.0, 1522.0, 1521.0, 1524.0, 1524.0, 1524.0, 1528.0, 1521.0, 1524.0, 1521.0, 1523.0, 1524.0, 1524.0, 1526.0, 1524.0, 1527.0, 1523.0, 1525.0, 1529.0, 1525.0, 1525.0, 1528.0, 1524.0, 1523.0, 1526.0, 1527.0, 1524.0, 1526.0, 1524.0, 1526.0, 1522.0, 1522.0, 1522.0, 1524.0, 1526.0, 1523.0, 1524.0, 1526.0, 1527.0, 1530.0, 1535.0, 1526.0, 1528.0, 1529.0, 1522.0, 1523.0, 1522.0, 1519.0, 1525.0, 1519.0, 1519.0, 1524.0, 1524.0, 1525.0, 1528.0, 1529.0, 1525.0, 1527.0, 1529.0, 1528.0, 1529.0, 1527.0, 1528.0, 1531.0, 1527.0, 1524.0, 1525.0, 1526.0, 1528.0, 1523.0, 1524.0, 1527.0, 1523.0, 1524.0, 1526.0, 1517.0, 1524.0, 1525.0, 1521.0, 1524.0, 1524.0, 1522.0, 1526.0, 1528.0, 1528.0, 1527.0, 1525.0, 1528.0, 1533.0, 1531.0, 1529.0, 1524.0, 1527.0, 1523.0, 1523.0, 1526.0, 1523.0, 1526.0, 1522.0, 1525.0, 1527.0, 1531.0, 1523.0, 1525.0, 1526.0, 1526.0, 1526.0, 1527.0, 1527.0, 1532.0, 1526.0, 1529.0, 1528.0, 1525.0, 1523.0, 1525.0, 1523.0, 1526.0, 1527.0, 1521.0, 1522.0, 1525.0, 1526.0, 1525.0, 1524.0, 1521.0, 1526.0, 1529.0, 1527.0, 1528.0, 1524.0, 1528.0, 1520.0, 1521.0, 1523.0, 1523.0, 1521.0]
    },
    "slices": {}
  }
}