{
  "AcquisitionMatrixPE": 64,
  "AcquisitionNumber": 1,
  "AcquisitionTime": "16:48:17.937500",
  "BandwidthPerPixelPhaseEncode": 31.888,
  "BaseResolution": 64,
  "BodyPartExamined": "HEAD",
  "CoilCombinationMethod": "Sum of Squares",
  "ConsistencyInfo": "N4_VE11C_LATEST_20160120",
  "ConversionSoftware": "dcm2niix",
  "ConversionSoftwareVersion": "v1.0.20211006",
  "DerivedVendorReportedEchoSpacing": 0.000489996,
  "DeviceSerialNumber": "167048",
  "EchoTime": 0.03,
  "EchoTrainLength": 64,
  "EffectiveEchoSpacing": 0.000489996,
  "FlipAngle": 90,
  "ImageOrientationPatientDICOM": [0.999562, -0.026904, -0.0123524, 0.0244287, 0.98528, -0.169191],
  "ImageType": [
    "ORIGINAL",
    "PRIMARY",
    "M",
    "ND",
    "NORM",
    "MOSAIC"
],
  "ImagingFrequency": 123.261,
  "InPlanePhaseEncodingDirectionDICOM": "COL",
  "InstitutionAddress": "Azinhaga Santa Comba StreetNo,Coimbra,District,PT,3000",
  "InstitutionName": "ICNAS",
  "MRAcquisitionType": "2D",
  "MagneticFieldStrength": 3,
  "Manufacturer": "Siemens",
  "ManufacturersModelName": "Prisma_fit",
  "MatrixCoilMode": "SENSE",
  "Modality": "MR",
  "PartialFourier": 1,
  "PatientPosition": "HFS",
  "PercentPhaseFOV": 100,
  "PercentSampling": 100,
  "PhaseEncodingDirection": "j-",
  "PhaseEncodingSteps": 64,
  "PhaseResolution": 1,
  "PixelBandwidth": 2365,
  "ProcedureStepDescription": "ICNAS^Cranio",
  "ProtocolName": "rtfmri_neurofeedback_MTRun3",
  "PulseSequenceDetails": "%SiemensSeq%\\ep2d_bold",
  "ReceiveCoilActiveElements": "HE1-4",
  "ReceiveCoilName": "HeadNeck_20",
  "ReconMatrixPE": 64,
  "RepetitionTime": 2,
  "SAR": 0.11049,
  "ScanOptions": "FS",
  "ScanningSequence": "EP",
  "SequenceName": "*epfid2d1_64",
  "SequenceVariant": "SK",
  "SeriesDescription": "rtfmri_neurofeedback_MTRun3",
  "SeriesNumber": 6,
  "ShimSetting": [10146, 2117, 8349, 402, 26, 82, 6, -24],
  "SliceThickness": 3,
  "SliceTiming": [0, 1.02, 0.06, 1.08, 0.12, 1.14, 0.18, 1.2, 0.24, 1.26, 0.3, 1.32, 0.36, 1.38, 0.42, 1.44, 0.48, 1.5, 0.54, 1.56, 0.6, 1.62, 0.66, 1.68, 0.72, 1.74, 0.78, 1.8, 0.84, 1.86, 0.9, 1.92, 0.96],
  "SoftwareVersions": "syngo MR E11",
  "SpacingBetweenSlices": 3,
  "StationName": "MRC35377",
  "TaskName": "nf",
  "TotalReadoutTime": 0.0308698,
  "TxRefAmp": 240.107,
  "dcmmeta_affine": [
    [-3.9982481002807617, 0.09771479666233063, -0.05016746371984482, 123.08291625976562],
    [0.10761599987745285, 3.941119909286499, -0.5064454078674316, -103.04720306396484],
    [-0.04940960183739662, 0.6767640113830566, 2.956516981124878, -63.06120681762695],
    [0.0, 0.0, 0.0, 1.0]
],
  "dcmmeta_reorient_transform": [
    [0.0, -1.0, 0.0, 63.0],
    [1.0, 0.0, 0.0, 0.0],
    [0.0, 0.0, 1.0, 0.0],
    [0.0, 0.0, 0.0, 1.0]
],
  "dcmmeta_shape": [64, 64, 33, 275],
  "dcmmeta_slice_dim": 2,
  "dcmmeta_version": 0.6,
  "global": {
    "const": {
      "AcquisitionMatrix": [64, 0, 0, 64],
      "AngioFlag": "N",
      "BitsAllocated": 16,
      "BitsStored": 12,
      "BodyPartExamined": "HEAD",
      "Columns": 384,
      "EchoNumbers": 1,
      "EchoTime": 30.0,
      "EchoTrainLength": 64,
      "FlipAngle": 90.0,
      "HighBit": 11,
      "ImageOrientationPatient": [0.999562, -0.026904, -0.0123524, 0.0244287, 0.98528, -0.169191],
      "ImagePositionPatient": [-784.593, -758.604, 95.7627],
      "ImageType": [
        "ORIGINAL",
        "PRIMARY",
        "M",
        "ND",
        "NORM",
        "MOSAIC"
],
      "ImagedNucleus": "1H",
      "ImagingFrequency": 123.261,
      "InPlanePhaseEncodingDirection": "COL",
      "MRAcquisitionType": "2D",
      "MagneticFieldStrength": 3.0,
      "Manufacturer": "SIEMENS",
      "ManufacturerModelName": "Prisma_fit",
      "Modality": "MR",
      "NumberOfAverages": 1.0,
      "NumberOfFrames": 1,
      "NumberOfPhaseEncodingSteps": 64,
      "PercentPhaseFieldOfView": 100.0,
      "PercentSampling": 100.0,
      "PerformedProcedureStepStartTime": "155111.867000",
      "PhotometricInterpretation": "MONOCHROME2",
      "PixelBandwidth": 2365.0,
      "PixelRepresentation": 0,
      "PixelSpacing": [4.0, 4.0],
      "ProtocolName": "rtfmri_neurofeedback_MTRun3",
      "RepetitionTime": 2000.0,
      "Rows": 384,
      "SAR": 0.11049,
      "SamplesPerPixel": 1,
      "ScanOptions": "FS",
      "ScanningSequence": "EP",
      "SequenceName": "*epfid2d1_64",
      "SequenceVariant": "SK",
      "SeriesDescription": "rtfmri_neurofeedback_MTRun3",
      "SeriesNumber": 6,
      "SeriesTime": "164820.304000",
      "SliceLocation": -46.8095,
      "SliceThickness": 3.0,
      "SmallestImagePixelValue": 0,
      "SoftwareVersions": "syngo MR E11",
      "SpacingBetweenSlices": 3.0,
      "SpecificCharacterSet": "ISO_IR 100",
      "StudyID": "940",
      "StudyTime": "155111.791000",
      "TransmitCoilName": "Body",
      "VariableFlipAngleFlag": "N",
      "WindowCenterWidthExplanation": "Algo1",
      "dBdt": 0.0},
    "slices": {}
  },
  "time": {
    "samples": {
      "AcquisitionNumber": [1, 2, 3, 4, 5, 6, 7, 8, 9, 10, 11, 12, 13, 14, 15, 16, 17, 18, 19, 20, 21, 22, 23, 24, 25, 26, 27, 28, 29, 30, 31, 32, 33, 34, 35, 36, 37, 38, 39, 40, 41, 42, 43, 44, 45, 46, 47, 48, 49, 50, 51, 52, 53, 54, 55, 56, 57, 58, 59, 60, 61, 62, 63, 64, 65, 66, 67, 68, 69, 70, 71, 72, 73, 74, 75, 76, 77, 78, 79, 80, 81, 82, 83, 84, 85, 86, 87, 88, 89, 90, 91, 92, 93, 94, 95, 96, 97, 98, 99, 100, 101, 102, 103, 104, 105, 106, 107, 108, 109, 110, 111, 112, 113, 114, 115, 116, 117, 118, 119, 120, 121, 122, 123, 124, 125, 126, 127, 128, 129, 130, 131, 132, 133, 134, 135, 136, 137, 138, 139, 140, 141, 142, 143, 144, 145, 146, 147, 148, 149, 150, 151, 152, 153, 154, 155, 156, 157, 158, 159, 160, 161, 162, 163, 164, 165, 166, 167, 168, 169, 170, 171, 172, 173, 174, 175, 176, 177, 178, 179, 180, 181, 182, 183, 184, 185, 186, 187, 188, 189, 190, 191, 192, 193, 194, 195, 196, 197, 198, 199, 200, 201, 202, 203, 204, 205, 206, 207, 208, 209, 210, 211, 212, 213, 214, 215, 216, 217, 218, 219, 220, 221, 222, 223, 224, 225, 226, 227, 228, 229, 230, 231, 232, 233, 234, 235, 236, 237, 238, 239, 240, 241, 242, 243, 244, 245, 246, 247, 248, 249, 250, 251, 252, 253, 254, 255, 256, 257, 258, 259, 260, 261, 262, 263, 264, 265, 266, 267, 268, 269, 270, 271, 272, 273, 274, 275],
      "AcquisitionTime": ["164817.937500", "164819.937500", "164821.937500", "164823.937500", "164825.937500", "164827.937500", "164829.937500", "164831.937500", "164833.937500", "164835.937500", "164837.937500", "164839.937500", "164841.937500", "164843.937500", "164845.937500", "164847.937500", "164849.937500", "164851.937500", "164853.937500", "164855.937500", "164857.937500", "164859.937500", "164901.937500", "164903.937500", "164905.937500", "164907.937500", "164909.937500", "164911.937500", "164913.937500", "164915.937500", "164917.937500", "164919.937500", "164921.937500", "164923.937500", "164925.937500", "164927.937500", "164929.937500", "164931.937500", "164933.937500", "164935.937500", "164937.937500", "164939.937500", "164941.937500", "164943.937500", "164945.937500", "164947.937500", "164949.937500", "164951.937500", "164953.937500", "164955.937500", "164957.937500", "164959.937500", "165001.937500", "165003.937500", "165005.937500", "165007.937500", "165009.937500", "165011.937500", "165013.937500", "165015.937500", "165017.937500", "165019.937500", "165021.937500", "165023.937500", "165025.937500", "165027.937500", "165029.937500", "165031.937500", "165033.937500", "165035.937500", "165037.937500", "165039.937500", "165041.937500", "165043.937500", "165045.937500", "165047.937500", "165049.937500", "165051.937500", "165053.937500", "165055.937500", "165057.937500", "165059.937500", "165101.937500", "165103.937500", "165105.937500", "165107.937500", "165109.937500", "165111.937500", "165113.937500", "165115.937500", "165117.937500", "165119.937500", "165121.937500", "165123.937500", "165125.937500", "165127.937500", "165129.937500", "165131.937500", "165133.937500", "165135.937500", "165137.937500", "165139.937500", "165141.937500", "165143.937500", "165145.937500", "165147.937500", "165149.937500", "165151.937500", "165153.937500", "165155.937500", "165157.937500", "165159.937500", "165201.937500", "165203.937500", "165205.937500", "165207.937500", "165209.937500", "165211.937500", "165213.937500", "165215.937500", "165217.937500", "165219.937500", "165221.937500", "165223.937500", "165225.937500", "165227.937500", "165229.937500", "165231.937500", "165233.937500", "165235.937500", "165237.937500", "165239.937500", "165241.937500", "165243.937500", "165245.937500", "165247.937500", "165249.937500", "165251.937500", "165253.937500", "165255.937500", "165257.937500", "165259.937500", "165301.937500", "165303.937500", "165305.937500", "165307.937500", "165309.937500", "165311.937500", "165313.937500", "165315.937500", "165317.937500", "165319.937500", "165321.937500", "165323.937500", "165325.937500", "165327.937500", "165329.937500", "165331.937500", "165333.937500", "165335.937500", "165337.937500", "165339.937500", "165341.937500", "165343.937500", "165345.937500", "165347.937500", "165349.937500", "165351.937500", "165353.937500", "165355.937500", "165357.937500", "165359.937500", "165401.937500", "165403.937500", "165405.937500", "165407.937500", "165409.937500", "165411.937500", "165413.937500", "165415.937500", "165417.937500", "165419.937500", "165421.937500", "165423.937500", "165425.937500", "165427.937500", "165429.937500", "165431.937500", "165433.937500", "165435.937500", "165437.937500", "165439.937500", "165441.937500", "165443.937500", "165445.937500", "165447.937500", "165449.937500", "165451.937500", "165453.937500", "165455.937500", "165457.937500", "165459.937500", "165501.937500", "165503.937500", "165505.937500", "165507.937500", "165509.937500", "165511.937500", "165513.937500", "165515.937500", "165517.937500", "165519.937500", "165521.937500", "165523.937500", "165525.937500", "165527.937500", "165529.937500", "165531.937500", "165533.937500", "165535.937500", "165537.937500", "165539.937500", "165541.937500", "165543.937500", "165545.937500", "165547.937500", "165549.937500", "165551.937500", "165553.937500", "165555.937500", "165557.937500", "165559.937500", "165601.937500", "165603.937500", "165605.937500", "165607.937500", "165609.937500", "165611.937500", "165613.937500", "165615.937500", "165617.937500", "165619.937500", "165621.937500", "165623.937500", "165625.937500", "165627.937500", "165629.937500", "165631.937500", "165633.937500", "165635.937500", "165637.937500", "165639.937500", "165641.937500", "165643.937500", "165645.937500", "165647.937500", "165649.937500", "165651.937500", "165653.937500", "165655.937500", "165657.937500", "165659.937500", "165701.937500", "165703.937500", "165705.937500", "165707.937500", "165709.937500", "165711.937500", "165713.937500", "165715.937500", "165717.937500", "165719.937500", "165721.937500", "165723.937500", "165725.937500"],
      "ContentTime": ["164820.307000", "164822.303000", "164824.303000", "164826.303000", "164828.303000", "164830.303000", "164832.303000", "164834.303000", "164836.303000", "164838.303000", "164840.303000", "164842.303000", "164844.303000", "164846.304000", "164848.303000", "164850.303000", "164852.303000", "164854.303000", "164856.303000", "164858.303000", "164900.303000", "164902.303000", "164904.304000", "164906.303000", "164908.303000", "164910.303000", "164912.303000", "164914.303000", "164916.303000", "164918.303000", "164920.303000", "164922.303000", "164924.303000", "164926.303000", "164928.303000", "164930.303000", "164932.303000", "164934.303000", "164936.303000", "164938.303000", "164940.303000", "164942.303000", "164944.303000", "164946.303000", "164948.303000", "164950.303000", "164952.303000", "164954.303000", "164956.304000", "164958.303000", "165000.303000", "165002.303000", "165004.303000", "165006.303000", "165008.303000", "165010.303000", "165012.303000", "165014.304000", "165016.303000", "165018.303000", "165020.303000", "165022.303000", "165024.303000", "165026.303000", "165028.303000", "165030.303000", "165032.303000", "165034.303000", "165036.303000", "165038.303000", "165040.303000", "165042.303000", "165044.303000", "165046.303000", "165048.303000", "165050.303000", "165052.303000", "165054.303000", "165056.303000", "165058.303000", "165100.303000", "165102.303000", "165104.303000", "165106.304000", "165108.303000", "165110.303000", "165112.303000", "165114.303000", "165116.303000", "165118.303000", "165120.303000", "165122.303000", "165124.304000", "165126.303000", "165128.303000", "165130.303000", "165132.303000", "165134.303000", "165136.303000", "165138.303000", "165140.303000", "165142.303000", "165144.303000", "165146.303000", "165148.303000", "165150.303000", "165152.303000", "165154.303000", "165156.303000", "165158.303000", "165200.303000", "165202.303000", "165204.303000", "165206.303000", "165208.303000", "165210.303000", "165212.303000", "165214.303000", "165216.304000", "165218.303000", "165220.303000", "165222.303000", "165224.303000", "165226.303000", "165228.303000", "165230.303000", "165232.303000", "165234.304000", "165236.303000", "165238.303000", "165240.303000", "165242.303000", "165244.303000", "165246.303000", "165248.303000", "165250.303000", "165252.303000", "165254.303000", "165256.303000", "165258.303000", "165300.303000", "165302.303000", "165304.303000", "165306.303000", "165308.304000", "165310.303000", "165312.303000", "165314.303000", "165316.303000", "165318.303000", "165320.303000", "165322.303000", "165324.303000", "165326.304000", "165328.303000", "165330.303000", "165332.303000", "165334.303000", "165336.303000", "165338.303000", "165340.303000", "165342.303000", "165344.304000", "165346.303000", "165348.303000", "165350.303000", "165352.303000", "165354.303000", "165356.303000", "165358.303000", "165400.303000", "165402.303000", "165404.303000", "165406.303000", "165408.303000", "165410.303000", "165412.303000", "165414.303000", "165416.303000", "165418.304000", "165420.303000", "165422.303000", "165424.303000", "165426.303000", "165428.303000", "165430.303000", "165432.303000", "165434.303000", "165436.304000", "165438.314000", "165440.303000", "165442.303000", "165444.303000", "165446.303000", "165448.303000", "165450.303000", "165452.303000", "165454.304000", "165456.303000", "165458.303000", "165500.303000", "165502.303000", "165504.303000", "165506.303000", "165508.303000", "165510.303000", "165512.303000", "165514.303000", "165516.303000", "165518.303000", "165520.303000", "165522.303000", "165524.303000", "165526.303000", "165528.304000", "165530.303000", "165532.303000", "165534.303000", "165536.303000", "165538.303000", "165540.303000", "165542.303000", "165544.303000", "165546.304000", "165548.303000", "165550.303000", "165552.303000", "165554.303000", "165556.303000", "165558.303000", "165600.303000", "165602.303000", "165604.304000", "165606.303000", "165608.303000", "165610.303000", "165612.303000", "165614.303000", "165616.303000", "165618.303000", "165620.303000", "165622.303000", "165624.303000", "165626.303000", "165628.303000", "165630.303000", "165632.303000", "165634.303000", "165636.303000", "165638.304000", "165640.303000", "165642.303000", "165644.303000", "165646.303000", "165648.303000", "165650.303000", "165652.303000", "165654.303000", "165656.304000", "165658.303000", "165700.303000", "165702.303000", "165704.303000", "165706.303000", "165708.303000", "165710.303000", "165712.303000", "165714.303000", "165716.303000", "165718.303000", "165720.303000", "165722.303000", "165724.303000", "165726.303000", "165728.034000"],
      "InstanceCreationTime": ["164820.307000", "164822.303000", "164824.303000", "164826.303000", "164828.303000", "164830.303000", "164832.303000", "164834.303000", "164836.303000", "164838.303000", "164840.303000", "164842.303000", "164844.303000", "164846.304000", "164848.303000", "164850.303000", "164852.303000", "164854.303000", "164856.303000", "164858.303000", "164900.303000", "164902.303000", "164904.304000", "164906.303000", "164908.303000", "164910.303000", "164912.303000", "164914.303000", "164916.303000", "164918.303000", "164920.303000", "164922.303000", "164924.303000", "164926.303000", "164928.303000", "164930.303000", "164932.303000", "164934.303000", "164936.303000", "164938.303000", "164940.303000", "164942.303000", "164944.303000", "164946.303000", "164948.303000", "164950.303000", "164952.303000", "164954.303000", "164956.304000", "164958.303000", "165000.303000", "165002.303000", "165004.303000", "165006.303000", "165008.303000", "165010.303000", "165012.303000", "165014.304000", "165016.303000", "165018.303000", "165020.303000", "165022.303000", "165024.303000", "165026.303000", "165028.303000", "165030.303000", "165032.303000", "165034.303000", "165036.303000", "165038.303000", "165040.303000", "165042.303000", "165044.303000", "165046.303000", "165048.303000", "165050.303000", "165052.303000", "165054.303000", "165056.303000", "165058.303000", "165100.303000", "165102.303000", "165104.303000", "165106.304000", "165108.303000", "165110.303000", "165112.303000", "165114.303000", "165116.303000", "165118.303000", "165120.303000", "165122.303000", "165124.304000", "165126.303000", "165128.303000", "165130.303000", "165132.303000", "165134.303000", "165136.303000", "165138.303000", "165140.303000", "165142.303000", "165144.303000", "165146.303000", "165148.303000", "165150.303000", "165152.303000", "165154.303000", "165156.303000", "165158.303000", "165200.303000", "165202.303000", "165204.303000", "165206.303000", "165208.303000", "165210.303000", "165212.303000", "165214.303000", "165216.304000", "165218.303000", "165220.303000", "165222.303000", "165224.303000", "165226.303000", "165228.303000", "165230.303000", "165232.303000", "165234.304000", "165236.303000", "165238.303000", "165240.303000", "165242.303000", "165244.303000", "165246.303000", "165248.303000", "165250.303000", "165252.303000", "165254.303000", "165256.303000", "165258.303000", "165300.303000", "165302.303000", "165304.303000", "165306.303000", "165308.304000", "165310.303000", "165312.303000", "165314.303000", "165316.303000", "165318.303000", "165320.303000", "165322.303000", "165324.303000", "165326.304000", "165328.303000", "165330.303000", "165332.303000", "165334.303000", "165336.303000", "165338.303000", "165340.303000", "165342.303000", "165344.304000", "165346.303000", "165348.303000", "165350.303000", "165352.303000", "165354.303000", "165356.303000", "165358.303000", "165400.303000", "165402.303000", "165404.303000", "165406.303000", "165408.303000", "165410.303000", "165412.303000", "165414.303000", "165416.303000", "165418.304000", "165420.303000", "165422.303000", "165424.303000", "165426.303000", "165428.303000", "165430.303000", "165432.303000", "165434.303000", "165436.304000", "165438.314000", "165440.303000", "165442.303000", "165444.303000", "165446.303000", "165448.303000", "165450.303000", "165452.303000", "165454.304000", "165456.303000", "165458.303000", "165500.303000", "165502.303000", "165504.303000", "165506.303000", "165508.303000", "165510.303000", "165512.303000", "165514.303000", "165516.303000", "165518.303000", "165520.303000", "165522.303000", "165524.303000", "165526.303000", "165528.304000", "165530.303000", "165532.303000", "165534.303000", "165536.303000", "165538.303000", "165540.303000", "165542.303000", "165544.303000", "165546.304000", "165548.303000", "165550.303000", "165552.303000", "165554.303000", "165556.303000", "165558.303000", "165600.303000", "165602.303000", "165604.304000", "165606.303000", "165608.303000", "165610.303000", "165612.303000", "165614.303000", "165616.303000", "165618.303000", "165620.303000", "165622.303000", "165624.303000", "165626.303000", "165628.303000", "165630.303000", "165632.303000", "165634.303000", "165636.303000", "165638.304000", "165640.303000", "165642.303000", "165644.303000", "165646.303000", "165648.303000", "165650.303000", "165652.303000", "165654.303000", "165656.304000", "165658.303000", "165700.303000", "165702.303000", "165704.303000", "165706.303000", "165708.303000", "165710.303000", "165712.303000", "165714.303000", "165716.303000", "165718.303000", "165720.303000", "165722.303000", "165724.303000", "165726.303000", "165728.034000"],
      "InstanceNumber": [1, 2, 3, 4, 5, 6, 7, 8, 9, 10, 11, 12, 13, 14, 15, 16, 17, 18, 19, 20, 21, 22, 23, 24, 25, 26, 27, 28, 29, 30, 31, 32, 33, 34, 35, 36, 37, 38, 39, 40, 41, 42, 43, 44, 45, 46, 47, 48, 49, 50, 51, 52, 53, 54, 55, 56, 57, 58, 59, 60, 61, 62, 63, 64, 65, 66, 67, 68, 69, 70, 71, 72, 73, 74, 75, 76, 77, 78, 79, 80, 81, 82, 83, 84, 85, 86, 87, 88, 89, 90, 91, 92, 93, 94, 95, 96, 97, 98, 99, 100, 101, 102, 103, 104, 105, 106, 107, 108, 109, 110, 111, 112, 113, 114, 115, 116, 117, 118, 119, 120, 121, 122, 123, 124, 125, 126, 127, 128, 129, 130, 131, 132, 133, 134, 135, 136, 137, 138, 139, 140, 141, 142, 143, 144, 145, 146, 147, 148, 149, 150, 151, 152, 153, 154, 155, 156, 157, 158, 159, 160, 161, 162, 163, 164, 165, 166, 167, 168, 169, 170, 171, 172, 173, 174, 175, 176, 177, 178, 179, 180, 181, 182, 183, 184, 185, 186, 187, 188, 189, 190, 191, 192, 193, 194, 195, 196, 197, 198, 199, 200, 201, 202, 203, 204, 205, 206, 207, 208, 209, 210, 211, 212, 213, 214, 215, 216, 217, 218, 219, 220, 221, 222, 223, 224, 225, 226, 227, 228, 229, 230, 231, 232, 233, 234, 235, 236, 237, 238, 239, 240, 241, 242, 243, 244, 245, 246, 247, 248, 249, 250, 251, 252, 253, 254, 255, 256, 257, 258, 259, 260, 261, 262, 263, 264, 265, 266, 267, 268, 269, 270, 271, 272, 273, 274, 275],
      "LargestImagePixelValue": [1856, 2393, 1593, 1656, 2033, 2012, 1872, 1703, 1815, 2056, 1697, 1562, 1629, 2081, 2460, 1623, 2037, 1617, 1807, 1983, 2031, 1619, 1616, 1699, 1608, 1740, 1755, 1870, 1912, 1574, 2123, 2147, 1626, 1657, 2558, 1582, 1703, 1960, 1582, 1696, 1722, 1945, 1558, 1768, 1790, 1924, 1725, 1575, 2007, 1830, 1847, 1785, 1751, 1885, 2161, 2264, 1590, 1589, 2013, 1989, 1552, 1675, 1998, 2022, 1570, 1590, 1741, 2266, 1554, 1673, 2073, 1843, 2026, 1731, 1913, 1721, 2239, 1715, 1568, 1556, 1599, 2016, 2262, 1760, 1638, 1950, 1558, 2255, 1673, 1551, 1767, 1580, 2211, 2121, 2143, 2053, 2131, 1975, 2276, 1577, 1806, 2038, 1765, 1754, 1593, 1549, 1905, 1606, 1555, 1729, 1717, 2030, 1598, 1584, 1891, 2578, 2373, 1535, 1968, 1789, 1572, 1621, 1633, 2303, 1753, 1544, 1999, 1845, 1862, 1544, 1572, 1549, 2031, 1538, 1576, 2162, 2347, 1999, 2014, 1897, 1777, 1897, 2476, 2403, 1544, 1553, 1768, 2509, 2020, 1537, 1551, 1677, 1546, 1543, 2007, 2563, 2287, 1588, 2021, 1984, 2266, 1554, 1553, 2248, 1920, 1604, 2096, 1606, 1776, 1915, 2024, 1562, 1556, 1557, 1543, 1802, 1561, 1884, 1558, 2228, 1941, 1730, 1963, 1978, 1641, 2210, 1836, 2053, 1572, 1551, 1921, 1807, 1798, 2015, 1551, 1998, 1551, 1550, 2153, 1567, 1539, 1871, 2182, 1864, 1821, 2413, 1877, 1736, 2222, 1882, 1605, 1910, 2033, 2033, 1576, 1596, 1904, 1999, 1997, 1573, 1535, 1917, 2676, 1702, 1925, 1636, 1890, 1553, 1545, 1976, 1844, 1533, 2071, 1795, 2080, 1629, 1541, 1667, 1850, 1920, 1567, 1561, 1571, 1939, 1571, 1849, 2055, 1534, 2545, 1792, 2206, 1623, 1781, 2687, 1648, 1564, 1582, 1633, 1630, 1654, 2055, 1648, 1704, 2312, 1562, 1563, 1715, 2161, 1897, 1721, 2208, 2216, 1563, 1908, 1563],
      "WindowCenter": [699.0, 699.0, 697.0, 697.0, 697.0, 696.0, 697.0, 696.0, 696.0, 697.0, 696.0, 697.0, 697.0, 698.0, 698.0, 696.0, 697.0, 697.0, 698.0, 697.0, 697.0, 696.0, 697.0, 697.0, 697.0, 698.0, 697.0, 697.0, 698.0, 698.0, 698.0, 697.0, 697.0, 697.0, 698.0, 696.0, 697.0, 697.0, 696.0, 697.0, 697.0, 698.0, 697.0, 698.0, 698.0, 698.0, 698.0, 698.0, 698.0, 697.0, 697.0, 697.0, 697.0, 698.0, 698.0, 697.0, 696.0, 696.0, 696.0, 696.0, 696.0, 696.0, 697.0, 696.0, 696.0, 698.0, 698.0, 698.0, 697.0, 697.0, 697.0, 696.0, 697.0, 696.0, 697.0, 696.0, 696.0, 695.0, 696.0, 697.0, 698.0, 698.0, 697.0, 697.0, 697.0, 698.0, 697.0, 698.0, 696.0, 696.0, 699.0, 699.0, 699.0, 698.0, 698.0, 697.0, 697.0, 696.0, 696.0, 695.0, 696.0, 696.0, 695.0, 695.0, 695.0, 695.0, 697.0, 696.0, 697.0, 698.0, 697.0, 699.0, 700.0, 698.0, 698.0, 697.0, 696.0, 694.0, 696.0, 695.0, 696.0, 697.0, 697.0, 698.0, 696.0, 696.0, 697.0, 697.0, 697.0, 697.0, 697.0, 697.0, 699.0, 699.0, 699.0, 699.0, 699.0, 698.0, 698.0, 698.0, 697.0, 697.0, 698.0, 698.0, 696.0, 697.0, 697.0, 697.0, 696.0, 695.0, 696.0, 696.0, 697.0, 697.0, 698.0, 699.0, 700.0, 698.0, 698.0, 697.0, 698.0, 697.0, 697.0, 698.0, 697.0, 696.0, 698.0, 697.0, 697.0, 697.0, 697.0, 696.0, 697.0, 697.0, 697.0, 698.0, 698.0, 699.0, 698.0, 699.0, 698.0, 697.0, 699.0, 698.0, 697.0, 698.0, 697.0, 697.0, 697.0, 697.0, 698.0, 698.0, 697.0, 698.0, 697.0, 698.0, 697.0, 698.0, 699.0, 698.0, 699.0, 699.0, 699.0, 698.0, 698.0, 699.0, 697.0, 696.0, 697.0, 696.0, 697.0, 698.0, 696.0, 696.0, 696.0, 697.0, 697.0, 696.0, 697.0, 698.0, 697.0, 698.0, 700.0, 697.0, 697.0, 696.0, 697.0, 697.0, 697.0, 698.0, 698.0, 697.0, 698.0, 697.0, 698.0, 697.0, 697.0, 697.0, 697.0, 697.0, 697.0, 697.0, 698.0, 699.0, 698.0, 698.0, 699.0, 697.0, 698.0, 696.0, 699.0, 697.0, 698.0, 699.0, 696.0, 697.0, 698.0, 698.0, 697.0, 698.0, 698.0, 697.0, 698.0, 698.0, 697.0, 699.0, 699.0, 699.0, 698.0, 697.0, 698.0, 698.0, 697.0, 698.0, 697.0],
      "WindowWidth": [1530.0, 1530.0, 1526.0, 1524.0, 1526.0, 1523.0, 1524.0, 1522.0, 1523.0, 1524.0, 1522.0, 1524.0, 1526.0, 1528.0, 1527.0, 1521.0, 1527.0, 1526.0, 1527.0, 1525.0, 1525.0, 1522.0, 1524.0, 1524.0, 1525.0, 1526.0, 1526.0, 1525.0, 1527.0, 1527.0, 1527.0, 1526.0, 1524.0, 1524.0, 1529.0, 1523.0, 1524.0, 1526.0, 1522.0, 1525.0, 1524.0, 1527.0, 1525.0, 1527.0, 1528.0, 1530.0, 1528.0, 1527.0, 1528.0, 1526.0, 1525.0, 1525.0, 1525.0, 1526.0, 1527.0, 1525.0, 1522.0, 1522.0, 1522.0, 1523.0, 1523.0, 1523.0, 1525.0, 1523.0, 1523.0, 1527.0, 1528.0, 1528.0, 1524.0, 1525.0, 1526.0, 1522.0, 1523.0, 1522.0, 1524.0, 1520.0, 1523.0, 1519.0, 1521.0, 1525.0, 1526.0, 1527.0, 1526.0, 1525.0, 1524.0, 1527.0, 1523.0, 1527.0, 1523.0, 1523.0, 1531.0, 1529.0, 1530.0, 1528.0, 1526.0, 1525.0, 1524.0, 1523.0, 1523.0, 1519.0, 1522.0, 1523.0, 1519.0, 1519.0, 1519.0, 1520.0, 1524.0, 1521.0, 1524.0, 1527.0, 1525.0, 1530.0, 1533.0, 1528.0, 1526.0, 1524.0, 1521.0, 1515.0, 1521.0, 1519.0, 1522.0, 1524.0, 1524.0, 1527.0, 1523.0, 1522.0, 1526.0, 1523.0, 1524.0, 1524.0, 1526.0, 1525.0, 1530.0, 1530.0, 1530.0, 1532.0, 1531.0, 1528.0, 1528.0, 1526.0, 1524.0, 1525.0, 1529.0, 1527.0, 1522.0, 1524.0, 1524.0, 1526.0, 1521.0, 1519.0, 1521.0, 1523.0, 1524.0, 1525.0, 1528.0, 1530.0, 1533.0, 1528.0, 1528.0, 1525.0, 1527.0, 1525.0, 1526.0, 1528.0, 1524.0, 1522.0, 1526.0, 1523.0, 1524.0, 1524.0, 1524.0, 1522.0, 1524.0, 1525.0, 1523.0, 1527.0, 1527.0, 1532.0, 1528.0, 1530.0, 1528.0, 1526.0, 1530.0, 1528.0, 1524.0, 1528.0, 1524.0, 1525.0, 1523.0, 1525.0, 1527.0, 1526.0, 1525.0, 1528.0, 1524.0, 1527.0, 1524.0, 1526.0, 1531.0, 1527.0, 1529.0, 1531.0, 1531.0, 1527.0, 1526.0, 1530.0, 1525.0, 1523.0, 1524.0, 1522.0, 1525.0, 1526.0, 1523.0, 1521.0, 1520.0, 1524.0, 1524.0, 1523.0, 1525.0, 1526.0, 1525.0, 1527.0, 1533.0, 1526.0, 1526.0, 1523.0, 1523.0, 1524.0, 1525.0, 1528.0, 1528.0, 1525.0, 1529.0, 1525.0, 1527.0, 1524.0, 1523.0, 1523.0, 1524.0, 1524.0, 1523.0, 1526.0, 1528.0, 1530.0, 1527.0, 1526.0, 1531.0, 1525.0, 1527.0, 1522.0, 1530.0, 1524.0, 1527.0, 1531.0, 1521.0, 1525.0, 1529.0, 1527.0, 1525.0, 1527.0, 1528.0, 1526.0, 1527.0, 1530.0, 1526.0, 1530.0, 1530.0, 1530.0, 1528.0, 1525.0, 1527.0, 1527.0, 1523.0, 1527.0, 1525.0]
    },
    "slices": {}
  }
}