{
  "AcquisitionMatrixPE": 64,
  "AcquisitionNumber": 1,
  "AcquisitionTime": "16:11:34.100000",
  "BandwidthPerPixelPhaseEncode": 31.888,
  "BaseResolution": 64,
  "BodyPartExamined": "HEAD",
  "CoilCombinationMethod": "Sum of Squares",
  "ConsistencyInfo": "N4_VE11C_LATEST_20160120",
  "ConversionSoftware": "dcm2niix",
  "ConversionSoftwareVersion": "v1.0.20211006",
  "DerivedVendorReportedEchoSpacing": 0.000489996,
  "DeviceSerialNumber": "167048",
  "EchoTime": 0.03,
  "EchoTrainLength": 64,
  "EffectiveEchoSpacing": 0.000489996,
  "FlipAngle": 90,
  "ImageOrientationPatientDICOM": [0.999562, -0.026904, -0.0123524, 0.0244287, 0.98528, -0.169191],
  "ImageType": [
    "ORIGINAL",
    "PRIMARY",
    "M",
    "ND",
    "NORM",
    "MOSAIC"
],
  "ImagingFrequency": 123.261,
  "InPlanePhaseEncodingDirectionDICOM": "COL",
  "InstitutionAddress": "Azinhaga Santa Comba StreetNo,Coimbra,District,PT,3000",
  "InstitutionName": "ICNAS",
  "MRAcquisitionType": "2D",
  "MagneticFieldStrength": 3,
  "Manufacturer": "Siemens",
  "ManufacturersModelName": "Prisma_fit",
  "MatrixCoilMode": "SENSE",
  "Modality": "MR",
  "PartialFourier": 1,
  "PatientPosition": "HFS",
  "PercentPhaseFOV": 100,
  "PercentSampling": 100,
  "PhaseEncodingDirection": "j-",
  "PhaseEncodingSteps": 64,
  "PhaseResolution": 1,
  "PixelBandwidth": 2365,
  "ProcedureStepDescription": "ICNAS^Cranio",
  "ProtocolName": "rtfmri_neurofeedback_MTLoc",
  "PulseSequenceDetails": "%SiemensSeq%\\ep2d_bold",
  "ReceiveCoilActiveElements": "HE1-4",
  "ReceiveCoilName": "HeadNeck_20",
  "ReconMatrixPE": 64,
  "RepetitionTime": 2,
  "SAR": 0.110379,
  "ScanOptions": "FS",
  "ScanningSequence": "EP",
  "SequenceName": "*epfid2d1_64",
  "SequenceVariant": "SK",
  "SeriesDescription": "rtfmri_neurofeedback_MTLoc",
  "SeriesNumber": 3,
  "ShimSetting": [10146, 2117, 8349, 402, 26, 82, 6, -24],
  "SliceThickness": 3,
  "SliceTiming": [0, 1.02, 0.06, 1.08, 0.12, 1.14, 0.18, 1.2, 0.24, 1.26, 0.3, 1.32, 0.36, 1.38, 0.42, 1.44, 0.48, 1.5, 0.54, 1.56, 0.6, 1.62, 0.66, 1.68, 0.72, 1.74, 0.78, 1.8, 0.84, 1.86, 0.9, 1.92, 0.96],
  "SoftwareVersions": "syngo MR E11",
  "SpacingBetweenSlices": 3,
  "StationName": "MRC35377",
  "TaskName": "loc",
  "TotalReadoutTime": 0.0308698,
  "TxRefAmp": 240.107,
  "dcmmeta_affine": [
    [-3.9982481002807617, 0.09771479666233063, -0.05016746371984482, 123.08291625976562],
    [0.10761599987745285, 3.941119909286499, -0.5064454078674316, -103.04720306396484],
    [-0.04940960183739662, 0.6767640113830566, 2.956516981124878, -63.06120681762695],
    [0.0, 0.0, 0.0, 1.0]
],
  "dcmmeta_reorient_transform": [
    [0.0, -1.0, 0.0, 63.0],
    [1.0, 0.0, 0.0, 0.0],
    [0.0, 0.0, 1.0, 0.0],
    [0.0, 0.0, 0.0, 1.0]
],
  "dcmmeta_shape": [64, 64, 33, 200],
  "dcmmeta_slice_dim": 2,
  "dcmmeta_version": 0.6,
  "global": {
    "const": {
      "AcquisitionMatrix": [64, 0, 0, 64],
      "AngioFlag": "N",
      "BitsAllocated": 16,
      "BitsStored": 12,
      "BodyPartExamined": "HEAD",
      "Columns": 384,
      "EchoNumbers": 1,
      "EchoTime": 30.0,
      "EchoTrainLength": 64,
      "FlipAngle": 90.0,
      "HighBit": 11,
      "ImageOrientationPatient": [0.999562, -0.026904, -0.0123524, 0.0244287, 0.98528, -0.169191],
      "ImagePositionPatient": [-784.593, -758.604, 95.7627],
      "ImageType": [
        "ORIGINAL",
        "PRIMARY",
        "M",
        "ND",
        "NORM",
        "MOSAIC"
],
      "ImagedNucleus": "1H",
      "ImagingFrequency": 123.261,
      "InPlanePhaseEncodingDirection": "COL",
      "MRAcquisitionType": "2D",
      "MagneticFieldStrength": 3.0,
      "Manufacturer": "SIEMENS",
      "ManufacturerModelName": "Prisma_fit",
      "Modality": "MR",
      "NumberOfAverages": 1.0,
      "NumberOfFrames": 1,
      "NumberOfPhaseEncodingSteps": 64,
      "PercentPhaseFieldOfView": 100.0,
      "PercentSampling": 100.0,
      "PerformedProcedureStepStartTime": "155111.867000",
      "PhotometricInterpretation": "MONOCHROME2",
      "PixelBandwidth": 2365.0,
      "PixelRepresentation": 0,
      "PixelSpacing": [4.0, 4.0],
      "ProtocolName": "rtfmri_neurofeedback_MTLoc",
      "RepetitionTime": 2000.0,
      "Rows": 384,
      "SAR": 0.110379,
      "SamplesPerPixel": 1,
      "ScanOptions": "FS",
      "ScanningSequence": "EP",
      "SequenceName": "*epfid2d1_64",
      "SequenceVariant": "SK",
      "SeriesDescription": "rtfmri_neurofeedback_MTLoc",
      "SeriesNumber": 3,
      "SeriesTime": "161136.457000",
      "SliceLocation": -46.8095,
      "SliceThickness": 3.0,
      "SmallestImagePixelValue": 0,
      "SoftwareVersions": "syngo MR E11",
      "SpacingBetweenSlices": 3.0,
      "SpecificCharacterSet": "ISO_IR 100",
      "StudyID": "940",
      "StudyTime": "155111.791000",
      "TransmitCoilName": "Body",
      "VariableFlipAngleFlag": "N",
      "WindowCenterWidthExplanation": "Algo1",
      "dBdt": 0.0},
    "slices": {}
  },
  "time": {
    "samples": {
      "AcquisitionNumber": [1, 2, 3, 4, 5, 6, 7, 8, 9, 10, 11, 12, 13, 14, 15, 16, 17, 18, 19, 20, 21, 22, 23, 24, 25, 26, 27, 28, 29, 30, 31, 32, 33, 34, 35, 36, 37, 38, 39, 40, 41, 42, 43, 44, 45, 46, 47, 48, 49, 50, 51, 52, 53, 54, 55, 56, 57, 58, 59, 60, 61, 62, 63, 64, 65, 66, 67, 68, 69, 70, 71, 72, 73, 74, 75, 76, 77, 78, 79, 80, 81, 82, 83, 84, 85, 86, 87, 88, 89, 90, 91, 92, 93, 94, 95, 96, 97, 98, 99, 100, 101, 102, 103, 104, 105, 106, 107, 108, 109, 110, 111, 112, 113, 114, 115, 116, 117, 118, 119, 120, 121, 122, 123, 124, 125, 126, 127, 128, 129, 130, 131, 132, 133, 134, 135, 136, 137, 138, 139, 140, 141, 142, 143, 144, 145, 146, 147, 148, 149, 150, 151, 152, 153, 154, 155, 156, 157, 158, 159, 160, 161, 162, 163, 164, 165, 166, 167, 168, 169, 170, 171, 172, 173, 174, 175, 176, 177, 178, 179, 180, 181, 182, 183, 184, 185, 186, 187, 188, 189, 190, 191, 192, 193, 194, 195, 196, 197, 198, 199, 200],
      "AcquisitionTime": ["161134.100000", "161136.100000", "161138.100000", "161140.100000", "161142.100000", "161144.100000", "161146.100000", "161148.100000", "161150.100000", "161152.100000", "161154.100000", "161156.100000", "161158.100000", "161200.100000", "161202.100000", "161204.100000", "161206.100000", "161208.100000", "161210.100000", "161212.100000", "161214.100000", "161216.100000", "161218.100000", "161220.100000", "161222.100000", "161224.100000", "161226.100000", "161228.100000", "161230.100000", "161232.100000", "161234.100000", "161236.100000", "161238.100000", "161240.100000", "161242.100000", "161244.100000", "161246.100000", "161248.100000", "161250.100000", "161252.100000", "161254.100000", "161256.100000", "161258.100000", "161300.100000", "161302.100000", "161304.100000", "161306.100000", "161308.100000", "161310.100000", "161312.100000", "161314.100000", "161316.100000", "161318.100000", "161320.100000", "161322.100000", "161324.100000", "161326.100000", "161328.100000", "161330.100000", "161332.100000", "161334.100000", "161336.100000", "161338.100000", "161340.100000", "161342.100000", "161344.100000", "161346.100000", "161348.100000", "161350.100000", "161352.100000", "161354.100000", "161356.100000", "161358.100000", "161400.100000", "161402.100000", "161404.100000", "161406.100000", "161408.100000", "161410.100000", "161412.100000", "161414.100000", "161416.100000", "161418.100000", "161420.100000", "161422.100000", "161424.100000", "161426.100000", "161428.100000", "161430.100000", "161432.100000", "161434.100000", "161436.100000", "161438.100000", "161440.100000", "161442.100000", "161444.100000", "161446.100000", "161448.100000", "161450.100000", "161452.100000", "161454.100000", "161456.100000", "161458.100000", "161500.100000", "161502.100000", "161504.100000", "161506.100000", "161508.100000", "161510.100000", "161512.100000", "161514.100000", "161516.100000", "161518.100000", "161520.100000", "161522.100000", "161524.100000", "161526.100000", "161528.100000", "161530.100000", "161532.100000", "161534.100000", "161536.100000", "161538.100000", "161540.100000", "161542.100000", "161544.100000", "161546.100000", "161548.100000", "161550.100000", "161552.100000", "161554.100000", "161556.100000", "161558.100000", "161600.100000", "161602.100000", "161604.100000", "161606.100000", "161608.100000", "161610.100000", "161612.100000", "161614.100000", "161616.100000", "161618.100000", "161620.100000", "161622.100000", "161624.100000", "161626.100000", "161628.100000", "161630.100000", "161632.100000", "161634.100000", "161636.100000", "161638.100000", "161640.100000", "161642.100000", "161644.100000", "161646.100000", "161648.100000", "161650.100000", "161652.100000", "161654.100000", "161656.100000", "161658.100000", "161700.100000", "161702.100000", "161704.100000", "161706.100000", "161708.100000", "161710.100000", "161712.100000", "161714.100000", "161716.100000", "161718.100000", "161720.100000", "161722.100000", "161724.100000", "161726.100000", "161728.100000", "161730.100000", "161732.100000", "161734.100000", "161736.100000", "161738.100000", "161740.100000", "161742.100000", "161744.100000", "161746.100000", "161748.100000", "161750.100000", "161752.100000", "161754.100000", "161756.100000", "161758.100000", "161800.100000", "161802.100000", "161804.100000", "161806.100000", "161808.100000", "161810.100000", "161812.100000"],
      "ContentTime": ["161136.460000", "161138.456000", "161140.456000", "161142.456000", "161144.456000", "161146.456000", "161148.456000", "161150.456000", "161152.456000", "161154.456000", "161156.456000", "161158.456000", "161200.456000", "161202.456000", "161204.456000", "161206.456000", "161208.456000", "161210.456000", "161212.456000", "161214.456000", "161216.456000", "161218.456000", "161220.456000", "161222.456000", "161224.456000", "161226.456000", "161228.456000", "161230.456000", "161232.456000", "161234.456000", "161236.456000", "161238.456000", "161240.456000", "161242.456000", "161244.456000", "161246.456000", "161248.456000", "161250.456000", "161252.456000", "161254.456000", "161256.456000", "161258.456000", "161300.456000", "161302.456000", "161304.456000", "161306.456000", "161308.456000", "161310.456000", "161312.456000", "161314.456000", "161316.456000", "161318.456000", "161320.456000", "161322.456000", "161324.456000", "161326.456000", "161328.456000", "161330.456000", "161332.456000", "161334.456000", "161336.456000", "161338.456000", "161340.456000", "161342.456000", "161344.456000", "161346.456000", "161348.456000", "161350.456000", "161352.456000", "161354.456000", "161356.456000", "161358.456000", "161400.456000", "161402.456000", "161404.456000", "161406.456000", "161408.456000", "161410.456000", "161412.456000", "161414.456000", "161416.456000", "161418.456000", "161420.456000", "161422.456000", "161424.456000", "161426.456000", "161428.456000", "161430.456000", "161432.456000", "161434.456000", "161436.456000", "161438.456000", "161440.457000", "161442.456000", "161444.456000", "161446.456000", "161448.456000", "161450.456000", "161452.456000", "161454.456000", "161456.456000", "161458.456000", "161500.456000", "161502.456000", "161504.456000", "161506.456000", "161508.456000", "161510.456000", "161512.456000", "161514.456000", "161516.456000", "161518.456000", "161520.456000", "161522.456000", "161524.456000", "161526.456000", "161528.456000", "161530.456000", "161532.456000", "161534.456000", "161536.456000", "161538.456000", "161540.456000", "161542.456000", "161544.456000", "161546.456000", "161548.456000", "161550.457000", "161552.456000", "161554.456000", "161556.456000", "161558.456000", "161600.456000", "161602.456000", "161604.456000", "161606.456000", "161608.456000", "161610.456000", "161612.456000", "161614.456000", "161616.456000", "161618.456000", "161620.456000", "161622.456000", "161624.456000", "161626.456000", "161628.456000", "161630.456000", "161632.456000", "161634.456000", "161636.456000", "161638.456000", "161640.456000", "161642.456000", "161644.456000", "161646.456000", "161648.456000", "161650.456000", "161652.456000", "161654.456000", "161656.456000", "161658.456000", "161700.457000", "161702.456000", "161704.456000", "161706.456000", "161708.456000", "161710.456000", "161712.456000", "161714.456000", "161716.456000", "161718.456000", "161720.456000", "161722.456000", "161724.456000", "161726.456000", "161728.456000", "161730.456000", "161732.456000", "161734.456000", "161736.456000", "161738.456000", "161740.456000", "161742.456000", "161744.456000", "161746.456000", "161748.456000", "161750.456000", "161752.456000", "161754.456000", "161756.456000", "161758.456000", "161800.456000", "161802.456000", "161804.456000", "161806.456000", "161808.456000", "161810.457000", "161812.456000", "161814.188000"],
      "InstanceCreationTime": ["161136.460000", "161138.456000", "161140.456000", "161142.456000", "161144.456000", "161146.456000", "161148.456000", "161150.456000", "161152.456000", "161154.456000", "161156.456000", "161158.456000", "161200.456000", "161202.456000", "161204.456000", "161206.456000", "161208.456000", "161210.456000", "161212.456000", "161214.456000", "161216.456000", "161218.456000", "161220.456000", "161222.456000", "161224.456000", "161226.456000", "161228.456000", "161230.456000", "161232.456000", "161234.456000", "161236.456000", "161238.456000", "161240.456000", "161242.456000", "161244.456000", "161246.456000", "161248.456000", "161250.456000", "161252.456000", "161254.456000", "161256.456000", "161258.456000", "161300.456000", "161302.456000", "161304.456000", "161306.456000", "161308.456000", "161310.456000", "161312.456000", "161314.456000", "161316.456000", "161318.456000", "161320.456000", "161322.456000", "161324.456000", "161326.456000", "161328.456000", "161330.456000", "161332.456000", "161334.456000", "161336.456000", "161338.456000", "161340.456000", "161342.456000", "161344.456000", "161346.456000", "161348.456000", "161350.456000", "161352.456000", "161354.456000", "161356.456000", "161358.456000", "161400.456000", "161402.456000", "161404.456000", "161406.456000", "161408.456000", "161410.456000", "161412.456000", "161414.456000", "161416.456000", "161418.456000", "161420.456000", "161422.456000", "161424.456000", "161426.456000", "161428.456000", "161430.456000", "161432.456000", "161434.456000", "161436.456000", "161438.456000", "161440.457000", "161442.456000", "161444.456000", "161446.456000", "161448.456000", "161450.456000", "161452.456000", "161454.456000", "161456.456000", "161458.456000", "161500.456000", "161502.456000", "161504.456000", "161506.456000", "161508.456000", "161510.456000", "161512.456000", "161514.456000", "161516.456000", "161518.456000", "161520.456000", "161522.456000", "161524.456000", "161526.456000", "161528.456000", "161530.456000", "161532.456000", "161534.456000", "161536.456000", "161538.456000", "161540.456000", "161542.456000", "161544.456000", "161546.456000", "161548.456000", "161550.457000", "161552.456000", "161554.456000", "161556.456000", "161558.456000", "161600.456000", "161602.456000", "161604.456000", "161606.456000", "161608.456000", "161610.456000", "161612.456000", "161614.456000", "161616.456000", "161618.456000", "161620.456000", "161622.456000", "161624.456000", "161626.456000", "161628.456000", "161630.456000", "161632.456000", "161634.456000", "161636.456000", "161638.456000", "161640.456000", "161642.456000", "161644.456000", "161646.456000", "161648.456000", "161650.456000", "161652.456000", "161654.456000", "161656.456000", "161658.456000", "161700.457000", "161702.456000", "161704.456000", "161706.456000", "161708.456000", "161710.456000", "161712.456000", "161714.456000", "161716.456000", "161718.456000", "161720.456000", "161722.456000", "161724.456000", "161726.456000", "161728.456000", "161730.456000", "161732.456000", "161734.456000", "161736.456000", "161738.456000", "161740.456000", "161742.456000", "161744.456000", "161746.456000", "161748.456000", "161750.456000", "161752.456000", "161754.456000", "161756.456000", "161758.456000", "161800.456000", "161802.456000", "161804.456000", "161806.456000", "161808.456000", "161810.457000", "161812.456000", "161814.188000"],
      "InstanceNumber": [1, 2, 3, 4, 5, 6, 7, 8, 9, 10, 11, 12, 13, 14, 15, 16, 17, 18, 19, 20, 21, 22, 23, 24, 25, 26, 27, 28, 29, 30, 31, 32, 33, 34, 35, 36, 37, 38, 39, 40, 41, 42, 43, 44, 45, 46, 47, 48, 49, 50, 51, 52, 53, 54, 55, 56, 57, 58, 59, 60, 61, 62, 63, 64, 65, 66, 67, 68, 69, 70, 71, 72, 73, 74, 75, 76, 77, 78, 79, 80, 81, 82, 83, 84, 85, 86, 87, 88, 89, 90, 91, 92, 93, 94, 95, 96, 97, 98, 99, 100, 101, 102, 103, 104, 105, 106, 107, 108, 109, 110, 111, 112, 113, 114, 115, 116, 117, 118, 119, 120, 121, 122, 123, 124, 125, 126, 127, 128, 129, 130, 131, 132, 133, 134, 135, 136, 137, 138, 139, 140, 141, 142, 143, 144, 145, 146, 147, 148, 149, 150, 151, 152, 153, 154, 155, 156, 157, 158, 159, 160, 161, 162, 163, 164, 165, 166, 167, 168, 169, 170, 171, 172, 173, 174, 175, 176, 177, 178, 179, 180, 181, 182, 183, 184, 185, 186, 187, 188, 189, 190, 191, 192, 193, 194, 195, 196, 197, 198, 199, 200],
      "LargestImagePixelValue": [1821, 1905, 1551, 2002, 1683, 2169, 1757, 2081, 2387, 1630, 1584, 1599, 2302, 1882, 1975, 1860, 1707, 1637, 1550, 1563, 1919, 2136, 1873, 2003, 1939, 1654, 1578, 1598, 2056, 2219, 1659, 2061, 1880, 1676, 1869, 1772, 2025, 2389, 2146, 1981, 1522, 1550, 1558, 1630, 2006, 2039, 1553, 1979, 1901, 2111, 1636, 2024, 1905, 1831, 2513, 1531, 1602, 1830, 2105, 1770, 1813, 1724, 1713, 1598, 1534, 1885, 2011, 1976, 1536, 1881, 2037, 2260, 1577, 1536, 1542, 2113, 1887, 1952, 1859, 1623, 1915, 1906, 1655, 1995, 2051, 1546, 1591, 2099, 2171, 1920, 1597, 1545, 1949, 1762, 1987, 1939, 2040, 2047, 2045, 2096, 1880, 1898, 2018, 2118, 1856, 1553, 1582, 1548, 1638, 1729, 1596, 1658, 1925, 1684, 1535, 1539, 1657, 2099, 2344, 2065, 1514, 1954, 1562, 1928, 1816, 1536, 1546, 1525, 2313, 1961, 2081, 1861, 2064, 1987, 2005, 1710, 1575, 1813, 1581, 1590, 2005, 2097, 1974, 1582, 1585, 1531, 1533, 1725, 2201, 1678, 1808, 1575, 1525, 2002, 2412, 1888, 1583, 1768, 2273, 1651, 1624, 1512, 1525, 2363, 2177, 1787, 1521, 1996, 2076, 1536, 1551, 1812, 2187, 1915, 1751, 2244, 1629, 1787, 1537, 1532, 1864, 1971, 1876, 2017, 1863, 1893, 1992, 1533, 1614, 1695, 1528, 1641, 1738, 1566, 1836, 2591, 2233, 2070, 1532, 1733],
      "WindowCenter": [698.0, 697.0, 696.0, 697.0, 696.0, 697.0, 695.0, 696.0, 696.0, 695.0, 697.0, 697.0, 697.0, 696.0, 697.0, 697.0, 696.0, 696.0, 697.0, 697.0, 698.0, 698.0, 697.0, 697.0, 697.0, 698.0, 698.0, 698.0, 699.0, 699.0, 697.0, 698.0, 698.0, 697.0, 698.0, 698.0, 698.0, 698.0, 697.0, 696.0, 695.0, 696.0, 697.0, 697.0, 697.0, 698.0, 697.0, 697.0, 697.0, 697.0, 697.0, 697.0, 697.0, 696.0, 697.0, 695.0, 696.0, 696.0, 696.0, 696.0, 696.0, 695.0, 695.0, 695.0, 696.0, 697.0, 698.0, 697.0, 697.0, 698.0, 697.0, 696.0, 695.0, 697.0, 697.0, 698.0, 697.0, 697.0, 697.0, 697.0, 698.0, 698.0, 697.0, 698.0, 698.0, 697.0, 697.0, 698.0, 697.0, 696.0, 696.0, 697.0, 697.0, 697.0, 697.0, 698.0, 697.0, 697.0, 697.0, 697.0, 696.0, 696.0, 696.0, 696.0, 695.0, 695.0, 696.0, 696.0, 696.0, 696.0, 697.0, 697.0, 697.0, 697.0, 696.0, 697.0, 697.0, 697.0, 697.0, 696.0, 696.0, 697.0, 696.0, 697.0, 696.0, 696.0, 697.0, 698.0, 699.0, 697.0, 698.0, 697.0, 697.0, 696.0, 696.0, 696.0, 696.0, 697.0, 697.0, 697.0, 698.0, 698.0, 697.0, 696.0, 696.0, 697.0, 697.0, 697.0, 697.0, 696.0, 696.0, 697.0, 698.0, 698.0, 697.0, 697.0, 697.0, 697.0, 698.0, 696.0, 697.0, 697.0, 697.0, 698.0, 697.0, 696.0, 696.0, 697.0, 696.0, 697.0, 698.0, 698.0, 698.0, 697.0, 697.0, 698.0, 696.0, 697.0, 697.0, 699.0, 698.0, 698.0, 698.0, 698.0, 696.0, 696.0, 697.0, 696.0, 696.0, 697.0, 697.0, 698.0, 698.0, 698.0, 698.0, 699.0, 697.0, 696.0, 696.0, 697.0],
      "WindowWidth": [1527.0, 1526.0, 1523.0, 1524.0, 1521.0, 1524.0, 1520.0, 1524.0, 1523.0, 1520.0, 1525.0, 1524.0, 1526.0, 1523.0, 1524.0, 1525.0, 1523.0, 1523.0, 1525.0, 1526.0, 1527.0, 1528.0, 1524.0, 1525.0, 1526.0, 1528.0, 1529.0, 1529.0, 1531.0, 1531.0, 1526.0, 1527.0, 1527.0, 1526.0, 1529.0, 1529.0, 1529.0, 1527.0, 1525.0, 1522.0, 1519.0, 1523.0, 1525.0, 1525.0, 1526.0, 1528.0, 1525.0, 1526.0, 1525.0, 1526.0, 1525.0, 1526.0, 1524.0, 1523.0, 1526.0, 1520.0, 1522.0, 1522.0, 1523.0, 1521.0, 1521.0, 1520.0, 1520.0, 1520.0, 1522.0, 1526.0, 1527.0, 1526.0, 1524.0, 1527.0, 1524.0, 1522.0, 1519.0, 1524.0, 1526.0, 1529.0, 1525.0, 1526.0, 1526.0, 1524.0, 1527.0, 1527.0, 1525.0, 1528.0, 1527.0, 1525.0, 1526.0, 1527.0, 1526.0, 1522.0, 1523.0, 1524.0, 1526.0, 1525.0, 1525.0, 1527.0, 1526.0, 1525.0, 1525.0, 1525.0, 1521.0, 1521.0, 1521.0, 1522.0, 1520.0, 1518.0, 1520.0, 1521.0, 1521.0, 1522.0, 1524.0, 1524.0, 1524.0, 1524.0, 1523.0, 1524.0, 1524.0, 1526.0, 1525.0, 1523.0, 1521.0, 1525.0, 1521.0, 1523.0, 1522.0, 1521.0, 1525.0, 1527.0, 1530.0, 1526.0, 1527.0, 1526.0, 1526.0, 1522.0, 1522.0, 1522.0, 1523.0, 1525.0, 1525.0, 1525.0, 1527.0, 1526.0, 1524.0, 1523.0, 1523.0, 1524.0, 1524.0, 1524.0, 1526.0, 1522.0, 1523.0, 1524.0, 1526.0, 1527.0, 1526.0, 1524.0, 1526.0, 1526.0, 1528.0, 1523.0, 1524.0, 1524.0, 1526.0, 1528.0, 1524.0, 1522.0, 1521.0, 1523.0, 1523.0, 1523.0, 1528.0, 1529.0, 1527.0, 1526.0, 1525.0, 1527.0, 1522.0, 1524.0, 1526.0, 1530.0, 1529.0, 1527.0, 1528.0, 1526.0, 1522.0, 1523.0, 1526.0, 1521.0, 1522.0, 1524.0, 1524.0, 1526.0, 1527.0, 1527.0, 1529.0, 1531.0, 1523.0, 1523.0, 1520.0, 1524.0]
    },
    "slices": {}
  }
}