{
  "AcquisitionMatrixPE": 64,
  "AcquisitionNumber": 1,
  "AcquisitionTime": "12:55:15.957500",
  "BandwidthPerPixelPhaseEncode": 31.888,
  "BaseResolution": 64,
  "BodyPartExamined": "HEAD",
  "CoilCombinationMethod": "Sum of Squares",
  "ConsistencyInfo": "N4_VE11C_LATEST_20160120",
  "ConversionSoftware": "dcm2niix",
  "ConversionSoftwareVersion": "v1.0.20211006",
  "DerivedVendorReportedEchoSpacing": 0.000489996,
  "DeviceSerialNumber": "167048",
  "DwellTime": 3.3e-06,
  "EchoTime": 0.03,
  "EchoTrainLength": 64,
  "EffectiveEchoSpacing": 0.000489996,
  "FlipAngle": 90,
  "ImageOrientationPatientDICOM": [0.998717, -0.0159676, 0.0480659, 0.0139456, 0.999016, 0.0421133],
  "ImageOrientationText": "Tra>Sag(2.8)>Cor(2.4)",
  "ImageType": [
    "ORIGINAL",
    "PRIMARY",
    "M",
    "ND",
    "NORM",
    "MOSAIC"
],
  "ImagingFrequency": 123.261,
  "InPlanePhaseEncodingDirectionDICOM": "COL",
  "InstitutionAddress": "Azinhaga Santa Comba StreetNo,Coimbra,District,PT,3000",
  "InstitutionName": "ICNAS",
  "InstitutionalDepartmentName": "Department",
  "MRAcquisitionType": "2D",
  "MagneticFieldStrength": 3,
  "Manufacturer": "Siemens",
  "ManufacturersModelName": "Prisma_fit",
  "MatrixCoilMode": "SENSE",
  "Modality": "MR",
  "PartialFourier": 1,
  "PatientPosition": "HFS",
  "PercentPhaseFOV": 100,
  "PercentSampling": 100,
  "PhaseEncodingDirection": "j-",
  "PhaseEncodingSteps": 64,
  "PhaseResolution": 1,
  "PixelBandwidth": 2365,
  "ProcedureStepDescription": "RM_FUNCIONAL",
  "ProtocolName": "rtfmri_neurofeedback_MTRun1",
  "PulseSequenceDetails": "%SiemensSeq%\\ep2d_bold",
  "ReceiveCoilActiveElements": "HE1-4",
  "ReceiveCoilName": "HeadNeck_20",
  "ReconMatrixPE": 64,
  "RepetitionTime": 2,
  "SAR": 0.112764,
  "ScanOptions": "FS",
  "ScanningSequence": "EP",
  "SequenceName": "*epfid2d1_64",
  "SequenceVariant": "SK",
  "SeriesDescription": "rtfmri_neurofeedback_MTRun1",
  "SeriesNumber": 6,
  "ShimSetting": [10161, 2131, 8397, 298, -76, 33, 92, -70],
  "SliceThickness": 3,
  "SliceTiming": [0, 1.02, 0.06, 1.08, 0.12, 1.14, 0.18, 1.2, 0.24, 1.26, 0.3, 1.32, 0.36, 1.38, 0.42, 1.44, 0.48, 1.5, 0.54, 1.56, 0.6, 1.62, 0.66, 1.68, 0.72, 1.74, 0.78, 1.8, 0.84, 1.86, 0.9, 1.92, 0.96],
  "SoftwareVersions": "syngo MR E11",
  "SpacingBetweenSlices": 3,
  "StationName": "MRC35377",
  "TaskName": "nf",
  "TotalReadoutTime": 0.0308698,
  "TxRefAmp": 268.503,
  "dcmmeta_affine": [
    [-3.994866132736206, 0.05578230321407318, 0.14607299864292145, 123.73074340820312],
    [0.06387043744325638, 3.9960620403289795, 0.12416679412126541, -118.021728515625],
    [0.19226348400115967, -0.1684531569480896, 2.993867874145508, -41.873104095458984],
    [0.0, 0.0, 0.0, 1.0]
],
  "dcmmeta_reorient_transform": [
    [0.0, -1.0, 0.0, 63.0],
    [1.0, 0.0, 0.0, 0.0],
    [0.0, 0.0, 1.0, 0.0],
    [0.0, 0.0, 0.0, 1.0]
],
  "dcmmeta_shape": [64, 64, 33, 275],
  "dcmmeta_slice_dim": 2,
  "dcmmeta_version": 0.6,
  "global": {
    "const": {
      "AccessionNumber": "0",
      "AcquisitionMatrix": [64, 0, 0, 64],
      "AngioFlag": "N",
      "BitsAllocated": 16,
      "BitsStored": 12,
      "BodyPartExamined": "HEAD",
      "Columns": 384,
      "EchoNumbers": 1,
      "EchoTime": 30.0,
      "EchoTrainLength": 64,
      "FlipAngle": 90.0,
      "HighBit": 11,
      "ImageOrientationPatient": [0.99871653002215, -0.0159676088466, 0.04806587280221, 0.01394557556774, 0.99901551122462, 0.0421132907133],
      "ImagePositionPatient": [-775.34877516158, -762.88083489808, -110.20031990047],
      "ImageType": [
        "ORIGINAL",
        "PRIMARY",
        "M",
        "ND",
        "NORM",
        "MOSAIC"
],
      "ImagedNucleus": "1H",
      "ImagingFrequency": 123.26135,
      "InPlanePhaseEncodingDirection": "COL",
      "MRAcquisitionType": "2D",
      "MagneticFieldStrength": 3.0,
      "Manufacturer": "SIEMENS",
      "ManufacturerModelName": "Prisma_fit",
      "Modality": "MR",
      "NumberOfAverages": 1.0,
      "NumberOfPhaseEncodingSteps": 64,
      "PercentPhaseFieldOfView": 100.0,
      "PercentSampling": 100.0,
      "PerformedProcedureStepStartTime": "122231.489000",
      "PhotometricInterpretation": "MONOCHROME2",
      "PixelBandwidth": 2365.0,
      "PixelRepresentation": 0,
      "PixelSpacing": [4.0, 4.0],
      "ProtocolName": "rtfmri_neurofeedback_MTRun1",
      "RepetitionTime": 2000.0,
      "RequestAttributesSequence": [
        {
          "RequestedProcedureID": "1229",
          "ScheduledProcedureStepDescription": "RM_FUNCIONAL",
          "ScheduledProcedureStepID": "1"}
],
      "Rows": 384,
      "SAR": 0.11276449150052,
      "SamplesPerPixel": 1,
      "ScanOptions": "FS",
      "ScanningSequence": "EP",
      "SequenceName": "*epfid2d1_64",
      "SequenceVariant": "SK",
      "SeriesDescription": "rtfmri_neurofeedback_MTRun1",
      "SeriesNumber": 6,
      "SeriesTime": "125518.465000",
      "SliceLocation": -40.647736478957,
      "SliceThickness": 3.0,
      "SmallestImagePixelValue": 0,
      "SoftwareVersions": "syngo MR E11",
      "SpacingBetweenSlices": 2.9999999275937,
      "SpecificCharacterSet": "ISO_IR 100",
      "StudyID": "1229",
      "StudyTime": "122229.753000",
      "TransmitCoilName": "Body",
      "VariableFlipAngleFlag": "N",
      "WindowCenterWidthExplanation": "Algo1",
      "dBdt": 0.0},
    "slices": {}
  },
  "time": {
    "samples": {
      "AcquisitionNumber": [1, 2, 3, 4, 5, 6, 7, 8, 9, 10, 11, 12, 13, 14, 15, 16, 17, 18, 19, 20, 21, 22, 23, 24, 25, 26, 27, 28, 29, 30, 31, 32, 33, 34, 35, 36, 37, 38, 39, 40, 41, 42, 43, 44, 45, 46, 47, 48, 49, 50, 51, 52, 53, 54, 55, 56, 57, 58, 59, 60, 61, 62, 63, 64, 65, 66, 67, 68, 69, 70, 71, 72, 73, 74, 75, 76, 77, 78, 79, 80, 81, 82, 83, 84, 85, 86, 87, 88, 89, 90, 91, 92, 93, 94, 95, 96, 97, 98, 99, 100, 101, 102, 103, 104, 105, 106, 107, 108, 109, 110, 111, 112, 113, 114, 115, 116, 117, 118, 119, 120, 121, 122, 123, 124, 125, 126, 127, 128, 129, 130, 131, 132, 133, 134, 135, 136, 137, 138, 139, 140, 141, 142, 143, 144, 145, 146, 147, 148, 149, 150, 151, 152, 153, 154, 155, 156, 157, 158, 159, 160, 161, 162, 163, 164, 165, 166, 167, 168, 169, 170, 171, 172, 173, 174, 175, 176, 177, 178, 179, 180, 181, 182, 183, 184, 185, 186, 187, 188, 189, 190, 191, 192, 193, 194, 195, 196, 197, 198, 199, 200, 201, 202, 203, 204, 205, 206, 207, 208, 209, 210, 211, 212, 213, 214, 215, 216, 217, 218, 219, 220, 221, 222, 223, 224, 225, 226, 227, 228, 229, 230, 231, 232, 233, 234, 235, 236, 237, 238, 239, 240, 241, 242, 243, 244, 245, 246, 247, 248, 249, 250, 251, 252, 253, 254, 255, 256, 257, 258, 259, 260, 261, 262, 263, 264, 265, 266, 267, 268, 269, 270, 271, 272, 273, 274, 275],
      "AcquisitionTime": ["125515.957500", "125517.957500", "125519.957500", "125521.957500", "125523.957500", "125525.957500", "125527.957500", "125529.957500", "125531.957500", "125533.957500", "125535.957500", "125537.957500", "125539.957500", "125541.957500", "125543.957500", "125545.957500", "125547.957500", "125549.957500", "125551.957500", "125553.957500", "125555.957500", "125557.957500", "125559.957500", "125601.957500", "125603.957500", "125605.957500", "125607.957500", "125609.957500", "125611.957500", "125613.957500", "125615.957500", "125617.957500", "125619.957500", "125621.957500", "125623.957500", "125625.957500", "125627.957500", "125629.957500", "125631.957500", "125633.957500", "125635.957500", "125637.957500", "125639.957500", "125641.957500", "125643.957500", "125645.957500", "125647.957500", "125649.957500", "125651.957500", "125653.957500", "125655.957500", "125657.957500", "125659.957500", "125701.957500", "125703.957500", "125705.957500", "125707.957500", "125709.957500", "125711.957500", "125713.957500", "125715.957500", "125717.957500", "125719.957500", "125721.957500", "125723.957500", "125725.957500", "125727.957500", "125729.957500", "125731.957500", "125733.957500", "125735.957500", "125737.957500", "125739.957500", "125741.957500", "125743.957500", "125745.957500", "125747.957500", "125749.957500", "125751.957500", "125753.957500", "125755.957500", "125757.957500", "125759.957500", "125801.957500", "125803.957500", "125805.957500", "125807.957500", "125809.957500", "125811.957500", "125813.957500", "125815.957500", "125817.957500", "125819.957500", "125821.957500", "125823.957500", "125825.957500", "125827.957500", "125829.957500", "125831.957500", "125833.957500", "125835.957500", "125837.957500", "125839.957500", "125841.957500", "125843.957500", "125845.957500", "125847.957500", "125849.957500", "125851.957500", "125853.957500", "125855.957500", "125857.957500", "125859.957500", "125901.957500", "125903.957500", "125905.957500", "125907.957500", "125909.957500", "125911.957500", "125913.957500", "125915.957500", "125917.957500", "125919.957500", "125921.957500", "125923.957500", "125925.957500", "125927.957500", "125929.957500", "125931.957500", "125933.957500", "125935.957500", "125937.957500", "125939.957500", "125941.957500", "125943.957500", "125945.957500", "125947.957500", "125949.957500", "125951.957500", "125953.957500", "125955.957500", "125957.957500", "125959.957500", "130001.957500", "130003.957500", "130005.957500", "130007.957500", "130009.957500", "130011.957500", "130013.957500", "130015.957500", "130017.957500", "130019.957500", "130021.957500", "130023.957500", "130025.957500", "130027.957500", "130029.957500", "130031.957500", "130033.957500", "130035.957500", "130037.957500", "130039.957500", "130041.957500", "130043.957500", "130045.957500", "130047.957500", "130049.957500", "130051.957500", "130053.957500", "130055.957500", "130057.957500", "130059.957500", "130101.957500", "130103.957500", "130105.957500", "130107.957500", "130109.957500", "130111.957500", "130113.957500", "130115.957500", "130117.957500", "130119.957500", "130121.957500", "130123.957500", "130125.957500", "130127.957500", "130129.957500", "130131.957500", "130133.957500", "130135.957500", "130137.957500", "130139.957500", "130141.957500", "130143.957500", "130145.957500", "130147.957500", "130149.957500", "130151.957500", "130153.957500", "130155.957500", "130157.957500", "130159.957500", "130201.957500", "130203.957500", "130205.957500", "130207.957500", "130209.957500", "130211.957500", "130213.957500", "130215.957500", "130217.957500", "130219.957500", "130221.957500", "130223.957500", "130225.957500", "130227.957500", "130229.957500", "130231.957500", "130233.957500", "130235.957500", "130237.957500", "130239.957500", "130241.957500", "130243.957500", "130245.957500", "130247.957500", "130249.957500", "130251.957500", "130253.957500", "130255.957500", "130257.957500", "130259.957500", "130301.957500", "130303.957500", "130305.957500", "130307.957500", "130309.957500", "130311.957500", "130313.957500", "130315.957500", "130317.957500", "130319.957500", "130321.957500", "130323.957500", "130325.957500", "130327.957500", "130329.957500", "130331.957500", "130333.957500", "130335.957500", "130337.957500", "130339.957500", "130341.957500", "130343.957500", "130345.957500", "130347.957500", "130349.957500", "130351.957500", "130353.957500", "130355.957500", "130357.957500", "130359.957500", "130401.957500", "130403.957500", "130405.957500", "130407.957500", "130409.957500", "130411.957500", "130413.957500", "130415.957500", "130417.957500", "130419.957500", "130421.957500", "130423.957500"],
      "ContentTime": ["125518.468000", "125520.465000", "125522.465000", "125524.465000", "125526.465000", "125528.464000", "125530.464000", "125532.464000", "125534.464000", "125536.464000", "125538.465000", "125540.465000", "125542.465000", "125544.465000", "125546.464000", "125548.464000", "125550.464000", "125552.464000", "125554.464000", "125556.465000", "125558.465000", "125600.465000", "125602.465000", "125604.464000", "125606.464000", "125608.464000", "125610.464000", "125612.465000", "125614.465000", "125616.465000", "125618.465000", "125620.464000", "125622.464000", "125624.464000", "125626.464000", "125628.464000", "125630.465000", "125632.465000", "125634.465000", "125636.465000", "125638.464000", "125640.464000", "125642.464000", "125644.464000", "125646.464000", "125648.465000", "125650.465000", "125652.465000", "125654.465000", "125656.464000", "125658.464000", "125700.464000", "125702.464000", "125704.464000", "125706.465000", "125708.465000", "125710.465000", "125712.465000", "125714.464000", "125716.464000", "125718.464000", "125720.464000", "125722.465000", "125724.465000", "125726.465000", "125728.465000", "125730.464000", "125732.464000", "125734.464000", "125736.464000", "125738.464000", "125740.465000", "125742.465000", "125744.465000", "125746.465000", "125748.464000", "125750.464000", "125752.464000", "125754.464000", "125756.464000", "125758.465000", "125800.465000", "125802.465000", "125804.465000", "125806.464000", "125808.464000", "125810.464000", "125812.464000", "125814.465000", "125816.465000", "125818.465000", "125820.465000", "125822.465000", "125824.464000", "125826.464000", "125828.464000", "125830.464000", "125832.465000", "125834.465000", "125836.465000", "125838.465000", "125840.464000", "125842.464000", "125844.464000", "125846.464000", "125848.464000", "125850.465000", "125852.465000", "125854.465000", "125856.465000", "125858.464000", "125900.464000", "125902.464000", "125904.464000", "125906.464000", "125908.465000", "125910.465000", "125912.465000", "125914.465000", "125916.464000", "125918.464000", "125920.464000", "125922.464000", "125924.465000", "125926.465000", "125928.465000", "125930.465000", "125932.465000", "125934.464000", "125936.464000", "125938.464000", "125940.464000", "125942.465000", "125944.465000", "125946.465000", "125948.465000", "125950.464000", "125952.464000", "125954.464000", "125956.464000", "125958.464000", "130000.465000", "130002.465000", "130004.465000", "130006.465000", "130008.464000", "130010.464000", "130012.464000", "130014.464000", "130016.464000", "130018.465000", "130020.481000", "130022.465000", "130024.465000", "130026.464000", "130028.464000", "130030.464000", "130032.464000", "130034.465000", "130036.465000", "130038.465000", "130040.465000", "130042.465000", "130044.464000", "130046.464000", "130048.464000", "130050.464000", "130052.465000", "130054.465000", "130056.465000", "130058.465000", "130100.464000", "130102.464000", "130104.464000", "130106.464000", "130108.464000", "130110.465000", "130112.465000", "130114.465000", "130116.465000", "130118.464000", "130120.464000", "130122.464000", "130124.464000", "130126.464000", "130128.465000", "130130.465000", "130132.465000", "130134.465000", "130136.464000", "130138.464000", "130140.464000", "130142.464000", "130144.465000", "130146.465000", "130148.465000", "130150.465000", "130152.465000", "130154.464000", "130156.464000", "130158.464000", "130200.464000", "130202.465000", "130204.465000", "130206.465000", "130208.465000", "130210.464000", "130212.464000", "130214.464000", "130216.464000", "130218.464000", "130220.465000", "130222.465000", "130224.465000", "130226.465000", "130228.464000", "130230.464000", "130232.464000", "130234.464000", "130236.464000", "130238.465000", "130240.465000", "130242.465000", "130244.465000", "130246.464000", "130248.464000", "130250.464000", "130252.464000", "130254.465000", "130256.465000", "130258.465000", "130300.465000", "130302.465000", "130304.464000", "130306.464000", "130308.464000", "130310.464000", "130312.465000", "130314.465000", "130316.465000", "130318.465000", "130320.464000", "130322.464000", "130324.464000", "130326.464000", "130328.464000", "130330.465000", "130332.465000", "130334.465000", "130336.465000", "130338.464000", "130340.464000", "130342.464000", "130344.464000", "130346.464000", "130348.465000", "130350.465000", "130352.465000", "130354.465000", "130356.464000", "130358.464000", "130400.464000", "130402.464000", "130404.465000", "130406.465000", "130408.465000", "130410.465000", "130412.464000", "130414.464000", "130416.464000", "130418.464000", "130420.464000", "130422.465000", "130424.465000", "130426.188000"],
      "InstanceCreationTime": ["125518.468000", "125520.465000", "125522.465000", "125524.465000", "125526.465000", "125528.464000", "125530.464000", "125532.464000", "125534.464000", "125536.464000", "125538.465000", "125540.465000", "125542.465000", "125544.465000", "125546.464000", "125548.464000", "125550.464000", "125552.464000", "125554.464000", "125556.465000", "125558.465000", "125600.465000", "125602.465000", "125604.464000", "125606.464000", "125608.464000", "125610.464000", "125612.465000", "125614.465000", "125616.465000", "125618.465000", "125620.464000", "125622.464000", "125624.464000", "125626.464000", "125628.464000", "125630.465000", "125632.465000", "125634.465000", "125636.465000", "125638.464000", "125640.464000", "125642.464000", "125644.464000", "125646.464000", "125648.465000", "125650.465000", "125652.465000", "125654.465000", "125656.464000", "125658.464000", "125700.464000", "125702.464000", "125704.464000", "125706.465000", "125708.465000", "125710.465000", "125712.465000", "125714.464000", "125716.464000", "125718.464000", "125720.464000", "125722.465000", "125724.465000", "125726.465000", "125728.465000", "125730.464000", "125732.464000", "125734.464000", "125736.464000", "125738.464000", "125740.465000", "125742.465000", "125744.465000", "125746.465000", "125748.464000", "125750.464000", "125752.464000", "125754.464000", "125756.464000", "125758.465000", "125800.465000", "125802.465000", "125804.465000", "125806.464000", "125808.464000", "125810.464000", "125812.464000", "125814.465000", "125816.465000", "125818.465000", "125820.465000", "125822.465000", "125824.464000", "125826.464000", "125828.464000", "125830.464000", "125832.465000", "125834.465000", "125836.465000", "125838.465000", "125840.464000", "125842.464000", "125844.464000", "125846.464000", "125848.464000", "125850.465000", "125852.465000", "125854.465000", "125856.465000", "125858.464000", "125900.464000", "125902.464000", "125904.464000", "125906.464000", "125908.465000", "125910.465000", "125912.465000", "125914.465000", "125916.464000", "125918.464000", "125920.464000", "125922.464000", "125924.465000", "125926.465000", "125928.465000", "125930.465000", "125932.465000", "125934.464000", "125936.464000", "125938.464000", "125940.464000", "125942.465000", "125944.465000", "125946.465000", "125948.465000", "125950.464000", "125952.464000", "125954.464000", "125956.464000", "125958.464000", "130000.465000", "130002.465000", "130004.465000", "130006.465000", "130008.464000", "130010.464000", "130012.464000", "130014.464000", "130016.464000", "130018.465000", "130020.481000", "130022.465000", "130024.465000", "130026.464000", "130028.464000", "130030.464000", "130032.464000", "130034.465000", "130036.465000", "130038.465000", "130040.465000", "130042.465000", "130044.464000", "130046.464000", "130048.464000", "130050.464000", "130052.465000", "130054.465000", "130056.465000", "130058.465000", "130100.464000", "130102.464000", "130104.464000", "130106.464000", "130108.464000", "130110.465000", "130112.465000", "130114.465000", "130116.465000", "130118.464000", "130120.464000", "130122.464000", "130124.464000", "130126.464000", "130128.465000", "130130.465000", "130132.465000", "130134.465000", "130136.464000", "130138.464000", "130140.464000", "130142.464000", "130144.465000", "130146.465000", "130148.465000", "130150.465000", "130152.465000", "130154.464000", "130156.464000", "130158.464000", "130200.464000", "130202.465000", "130204.465000", "130206.465000", "130208.465000", "130210.464000", "130212.464000", "130214.464000", "130216.464000", "130218.464000", "130220.465000", "130222.465000", "130224.465000", "130226.465000", "130228.464000", "130230.464000", "130232.464000", "130234.464000", "130236.464000", "130238.465000", "130240.465000", "130242.465000", "130244.465000", "130246.464000", "130248.464000", "130250.464000", "130252.464000", "130254.465000", "130256.465000", "130258.465000", "130300.465000", "130302.465000", "130304.464000", "130306.464000", "130308.464000", "130310.464000", "130312.465000", "130314.465000", "130316.465000", "130318.465000", "130320.464000", "130322.464000", "130324.464000", "130326.464000", "130328.464000", "130330.465000", "130332.465000", "130334.465000", "130336.465000", "130338.464000", "130340.464000", "130342.464000", "130344.464000", "130346.464000", "130348.465000", "130350.465000", "130352.465000", "130354.465000", "130356.464000", "130358.464000", "130400.464000", "130402.464000", "130404.465000", "130406.465000", "130408.465000", "130410.465000", "130412.464000", "130414.464000", "130416.464000", "130418.464000", "130420.464000", "130422.465000", "130424.465000", "130426.188000"],
      "InstanceNumber": [1, 2, 3, 4, 5, 6, 7, 8, 9, 10, 11, 12, 13, 14, 15, 16, 17, 18, 19, 20, 21, 22, 23, 24, 25, 26, 27, 28, 29, 30, 31, 32, 33, 34, 35, 36, 37, 38, 39, 40, 41, 42, 43, 44, 45, 46, 47, 48, 49, 50, 51, 52, 53, 54, 55, 56, 57, 58, 59, 60, 61, 62, 63, 64, 65, 66, 67, 68, 69, 70, 71, 72, 73, 74, 75, 76, 77, 78, 79, 80, 81, 82, 83, 84, 85, 86, 87, 88, 89, 90, 91, 92, 93, 94, 95, 96, 97, 98, 99, 100, 101, 102, 103, 104, 105, 106, 107, 108, 109, 110, 111, 112, 113, 114, 115, 116, 117, 118, 119, 120, 121, 122, 123, 124, 125, 126, 127, 128, 129, 130, 131, 132, 133, 134, 135, 136, 137, 138, 139, 140, 141, 142, 143, 144, 145, 146, 147, 148, 149, 150, 151, 152, 153, 154, 155, 156, 157, 158, 159, 160, 161, 162, 163, 164, 165, 166, 167, 168, 169, 170, 171, 172, 173, 174, 175, 176, 177, 178, 179, 180, 181, 182, 183, 184, 185, 186, 187, 188, 189, 190, 191, 192, 193, 194, 195, 196, 197, 198, 199, 200, 201, 202, 203, 204, 205, 206, 207, 208, 209, 210, 211, 212, 213, 214, 215, 216, 217, 218, 219, 220, 221, 222, 223, 224, 225, 226, 227, 228, 229, 230, 231, 232, 233, 234, 235, 236, 237, 238, 239, 240, 241, 242, 243, 244, 245, 246, 247, 248, 249, 250, 251, 252, 253, 254, 255, 256, 257, 258, 259, 260, 261, 262, 263, 264, 265, 266, 267, 268, 269, 270, 271, 272, 273, 274, 275],
      "LargestImagePixelValue": [1939, 1758, 2043, 1610, 2082, 1912, 2251, 1813, 1917, 1611, 1868, 1614, 1695, 1493, 1615, 1569, 1964, 2200, 1909, 1576, 1682, 1643, 1655, 1617, 1582, 1711, 1639, 1872, 1529, 1934, 1479, 1725, 1632, 1897, 2022, 2145, 1621, 1764, 1552, 1721, 1587, 1874, 1649, 1630, 1586, 1516, 1677, 1815, 2046, 1524, 1847, 1539, 1929, 1635, 1857, 1606, 1703, 1714, 1992, 1710, 1619, 1594, 1562, 1904, 1776, 1758, 1628, 1582, 1513, 1536, 2038, 1500, 1559, 1573, 2035, 1899, 1801, 1600, 1577, 1615, 1566, 1759, 1498, 1858, 1524, 1796, 1672, 1923, 1894, 1580, 1526, 1706, 1985, 2382, 1712, 1627, 1681, 1616, 1876, 1575, 1701, 1525, 1688, 1547, 2074, 2618, 2301, 1918, 1576, 1577, 1491, 1534, 1736, 1650, 1530, 1546, 1760, 1570, 1539, 2341, 1584, 1538, 1517, 1496, 1612, 1700, 1913, 2318, 1524, 1491, 1882, 1624, 1806, 1606, 1654, 1548, 1978, 2488, 1823, 1984, 2270, 1475, 1502, 1567, 1609, 1590, 1537, 1594, 1829, 1702, 1797, 1584, 1927, 1826, 2488, 1564, 1625, 1607, 1795, 2117, 2527, 1534, 1546, 1491, 1490, 1621, 2186, 1564, 1530, 1784, 1608, 1715, 1761, 1525, 1603, 1997, 1841, 2420, 1960, 1581, 1630, 2179, 2828, 1557, 1582, 1597, 1509, 1614, 1806, 1922, 1721, 1541, 1509, 1714, 1906, 1813, 1793, 1581, 1767, 1557, 1953, 1753, 1515, 1840, 1553, 1707, 1611, 1816, 1953, 2642, 1523, 1612, 1537, 1539, 1652, 1538, 1788, 1530, 2304, 1762, 1807, 1563, 1726, 1646, 1958, 2368, 1795, 1642, 1730, 1855, 2003, 2365, 1571, 1630, 1512, 1517, 1809, 1874, 1638, 1615, 1523, 2157, 1649, 1667, 1581, 1557, 2550, 2870, 2843, 1661, 1576, 1884, 1651, 2264, 1558, 1546, 1627, 1582, 1537, 1532, 1713, 1960, 1742, 2237, 2027, 2100, 1548, 1543, 2256, 2721, 1720, 1543, 1801, 1526, 1779],
      "WindowCenter": [683.0, 680.0, 680.0, 678.0, 679.0, 678.0, 679.0, 678.0, 679.0, 677.0, 678.0, 677.0, 677.0, 677.0, 679.0, 678.0, 680.0, 680.0, 679.0, 678.0, 679.0, 679.0, 679.0, 678.0, 678.0, 679.0, 678.0, 679.0, 677.0, 678.0, 676.0, 678.0, 678.0, 678.0, 678.0, 679.0, 677.0, 678.0, 677.0, 679.0, 678.0, 678.0, 677.0, 677.0, 677.0, 678.0, 678.0, 678.0, 678.0, 676.0, 678.0, 677.0, 678.0, 677.0, 678.0, 676.0, 678.0, 678.0, 678.0, 676.0, 677.0, 677.0, 677.0, 678.0, 678.0, 677.0, 678.0, 678.0, 678.0, 677.0, 678.0, 675.0, 679.0, 679.0, 679.0, 678.0, 677.0, 676.0, 677.0, 678.0, 677.0, 678.0, 677.0, 679.0, 677.0, 679.0, 678.0, 680.0, 679.0, 677.0, 678.0, 680.0, 678.0, 678.0, 675.0, 674.0, 676.0, 676.0, 677.0, 676.0, 676.0, 674.0, 675.0, 680.0, 679.0, 678.0, 676.0, 674.0, 673.0, 674.0, 675.0, 676.0, 678.0, 679.0, 677.0, 676.0, 680.0, 678.0, 677.0, 678.0, 676.0, 677.0, 678.0, 679.0, 680.0, 680.0, 680.0, 681.0, 678.0, 677.0, 678.0, 677.0, 678.0, 678.0, 679.0, 680.0, 680.0, 679.0, 676.0, 674.0, 673.0, 671.0, 672.0, 675.0, 677.0, 679.0, 679.0, 679.0, 679.0, 677.0, 678.0, 678.0, 680.0, 679.0, 679.0, 677.0, 676.0, 677.0, 677.0, 675.0, 675.0, 673.0, 674.0, 676.0, 678.0, 678.0, 679.0, 678.0, 677.0, 678.0, 678.0, 677.0, 678.0, 679.0, 679.0, 681.0, 679.0, 680.0, 680.0, 679.0, 678.0, 678.0, 678.0, 675.0, 675.0, 677.0, 677.0, 678.0, 678.0, 678.0, 676.0, 676.0, 677.0, 678.0, 678.0, 676.0, 677.0, 678.0, 678.0, 676.0, 678.0, 677.0, 675.0, 676.0, 674.0, 678.0, 678.0, 680.0, 677.0, 677.0, 672.0, 673.0, 674.0, 676.0, 678.0, 679.0, 680.0, 679.0, 681.0, 679.0, 678.0, 677.0, 678.0, 678.0, 678.0, 679.0, 679.0, 677.0, 677.0, 676.0, 675.0, 676.0, 675.0, 676.0, 677.0, 677.0, 677.0, 678.0, 677.0, 678.0, 677.0, 678.0, 676.0, 678.0, 679.0, 678.0, 679.0, 679.0, 677.0, 674.0, 676.0, 678.0, 676.0, 677.0, 673.0, 672.0, 673.0, 675.0, 678.0, 679.0, 679.0, 681.0, 680.0, 680.0, 679.0, 679.0, 676.0, 677.0, 678.0, 678.0, 675.0, 675.0, 677.0, 676.0, 677.0],
      "WindowWidth": [1477.0, 1468.0, 1467.0, 1462.0, 1464.0, 1462.0, 1466.0, 1462.0, 1465.0, 1461.0, 1462.0, 1459.0, 1461.0, 1461.0, 1464.0, 1462.0, 1466.0, 1466.0, 1465.0, 1462.0, 1465.0, 1464.0, 1464.0, 1461.0, 1463.0, 1464.0, 1463.0, 1464.0, 1460.0, 1463.0, 1458.0, 1463.0, 1461.0, 1462.0, 1461.0, 1464.0, 1460.0, 1462.0, 1461.0, 1464.0, 1461.0, 1462.0, 1459.0, 1460.0, 1460.0, 1462.0, 1463.0, 1463.0, 1462.0, 1458.0, 1461.0, 1459.0, 1462.0, 1459.0, 1463.0, 1458.0, 1462.0, 1461.0, 1462.0, 1457.0, 1458.0, 1459.0, 1460.0, 1462.0, 1461.0, 1460.0, 1462.0, 1461.0, 1462.0, 1459.0, 1462.0, 1455.0, 1464.0, 1464.0, 1466.0, 1461.0, 1460.0, 1457.0, 1459.0, 1461.0, 1460.0, 1462.0, 1460.0, 1463.0, 1460.0, 1464.0, 1463.0, 1467.0, 1463.0, 1460.0, 1461.0, 1466.0, 1462.0, 1462.0, 1454.0, 1452.0, 1457.0, 1458.0, 1460.0, 1458.0, 1457.0, 1452.0, 1454.0, 1467.0, 1466.0, 1463.0, 1456.0, 1450.0, 1448.0, 1450.0, 1453.0, 1457.0, 1461.0, 1464.0, 1460.0, 1457.0, 1467.0, 1463.0, 1460.0, 1463.0, 1457.0, 1460.0, 1463.0, 1464.0, 1467.0, 1467.0, 1467.0, 1470.0, 1462.0, 1460.0, 1462.0, 1459.0, 1462.0, 1461.0, 1464.0, 1467.0, 1466.0, 1464.0, 1456.0, 1451.0, 1449.0, 1443.0, 1447.0, 1454.0, 1459.0, 1465.0, 1466.0, 1465.0, 1464.0, 1459.0, 1463.0, 1462.0, 1466.0, 1464.0, 1465.0, 1459.0, 1458.0, 1459.0, 1460.0, 1455.0, 1452.0, 1447.0, 1452.0, 1457.0, 1462.0, 1462.0, 1464.0, 1461.0, 1460.0, 1462.0, 1461.0, 1459.0, 1461.0, 1464.0, 1466.0, 1469.0, 1464.0, 1466.0, 1466.0, 1463.0, 1463.0, 1460.0, 1461.0, 1453.0, 1454.0, 1459.0, 1458.0, 1462.0, 1461.0, 1462.0, 1457.0, 1457.0, 1458.0, 1461.0, 1462.0, 1457.0, 1460.0, 1461.0, 1463.0, 1457.0, 1461.0, 1460.0, 1455.0, 1457.0, 1452.0, 1461.0, 1463.0, 1468.0, 1460.0, 1458.0, 1447.0, 1449.0, 1451.0, 1456.0, 1462.0, 1463.0, 1467.0, 1464.0, 1468.0, 1463.0, 1462.0, 1460.0, 1462.0, 1462.0, 1462.0, 1465.0, 1465.0, 1459.0, 1458.0, 1457.0, 1454.0, 1456.0, 1454.0, 1457.0, 1459.0, 1459.0, 1459.0, 1462.0, 1459.0, 1461.0, 1458.0, 1461.0, 1455.0, 1461.0, 1464.0, 1462.0, 1465.0, 1464.0, 1459.0, 1452.0, 1456.0, 1461.0, 1456.0, 1458.0, 1447.0, 1447.0, 1448.0, 1453.0, 1461.0, 1465.0, 1465.0, 1469.0, 1466.0, 1467.0, 1465.0, 1464.0, 1457.0, 1459.0, 1460.0, 1460.0, 1453.0, 1454.0, 1460.0, 1457.0, 1458.0]
    },
    "slices": {}
  }
}