{
  "AcquisitionMatrixPE": 64,
  "AcquisitionNumber": 1,
  "AcquisitionTime": "13:06:36.920000",
  "BandwidthPerPixelPhaseEncode": 31.888,
  "BaseResolution": 64,
  "BodyPartExamined": "HEAD",
  "CoilCombinationMethod": "Sum of Squares",
  "ConsistencyInfo": "N4_VE11C_LATEST_20160120",
  "ConversionSoftware": "dcm2niix",
  "ConversionSoftwareVersion": "v1.0.20211006",
  "DerivedVendorReportedEchoSpacing": 0.000489996,
  "DeviceSerialNumber": "167048",
  "DwellTime": 3.3e-06,
  "EchoTime": 0.03,
  "EchoTrainLength": 64,
  "EffectiveEchoSpacing": 0.000489996,
  "FlipAngle": 90,
  "ImageOrientationPatientDICOM": [0.998717, -0.0159676, 0.0480659, 0.0139456, 0.999016, 0.0421133],
  "ImageOrientationText": "Tra>Sag(2.8)>Cor(2.4)",
  "ImageType": [
    "ORIGINAL",
    "PRIMARY",
    "M",
    "ND",
    "NORM",
    "MOSAIC"
],
  "ImagingFrequency": 123.261,
  "InPlanePhaseEncodingDirectionDICOM": "COL",
  "InstitutionAddress": "Azinhaga Santa Comba StreetNo,Coimbra,District,PT,3000",
  "InstitutionName": "ICNAS",
  "InstitutionalDepartmentName": "Department",
  "MRAcquisitionType": "2D",
  "MagneticFieldStrength": 3,
  "Manufacturer": "Siemens",
  "ManufacturersModelName": "Prisma_fit",
  "MatrixCoilMode": "SENSE",
  "Modality": "MR",
  "PartialFourier": 1,
  "PatientPosition": "HFS",
  "PercentPhaseFOV": 100,
  "PercentSampling": 100,
  "PhaseEncodingDirection": "j-",
  "PhaseEncodingSteps": 64,
  "PhaseResolution": 1,
  "PixelBandwidth": 2365,
  "ProcedureStepDescription": "RM_FUNCIONAL",
  "ProtocolName": "rtfmri_neurofeedback_MTRun2",
  "PulseSequenceDetails": "%SiemensSeq%\\ep2d_bold",
  "ReceiveCoilActiveElements": "HE1-4",
  "ReceiveCoilName": "HeadNeck_20",
  "ReconMatrixPE": 64,
  "RepetitionTime": 2,
  "SAR": 0.112764,
  "ScanOptions": "FS",
  "ScanningSequence": "EP",
  "SequenceName": "*epfid2d1_64",
  "SequenceVariant": "SK",
  "SeriesDescription": "rtfmri_neurofeedback_MTRun2",
  "SeriesNumber": 7,
  "ShimSetting": [10161, 2131, 8397, 298, -76, 33, 92, -70],
  "SliceThickness": 3,
  "SliceTiming": [0, 1.02, 0.06, 1.08, 0.12, 1.14, 0.18, 1.2, 0.24, 1.26, 0.3, 1.32, 0.36, 1.38, 0.42, 1.44, 0.48, 1.5, 0.54, 1.56, 0.6, 1.62, 0.66, 1.68, 0.72, 1.74, 0.78, 1.8, 0.84, 1.86, 0.9, 1.92, 0.96],
  "SoftwareVersions": "syngo MR E11",
  "SpacingBetweenSlices": 3,
  "StationName": "MRC35377",
  "TaskName": "nf",
  "TotalReadoutTime": 0.0308698,
  "TxRefAmp": 268.503,
  "dcmmeta_affine": [
    [-3.994866132736206, 0.05578230321407318, 0.14607299864292145, 123.73074340820312],
    [0.06387043744325638, 3.9960620403289795, 0.12416679412126541, -118.021728515625],
    [0.19226348400115967, -0.1684531569480896, 2.993867874145508, -41.873104095458984],
    [0.0, 0.0, 0.0, 1.0]
],
  "dcmmeta_reorient_transform": [
    [0.0, -1.0, 0.0, 63.0],
    [1.0, 0.0, 0.0, 0.0],
    [0.0, 0.0, 1.0, 0.0],
    [0.0, 0.0, 0.0, 1.0]
],
  "dcmmeta_shape": [64, 64, 33, 275],
  "dcmmeta_slice_dim": 2,
  "dcmmeta_version": 0.6,
  "global": {
    "const": {
      "AccessionNumber": "0",
      "AcquisitionMatrix": [64, 0, 0, 64],
      "AngioFlag": "N",
      "BitsAllocated": 16,
      "BitsStored": 12,
      "BodyPartExamined": "HEAD",
      "Columns": 384,
      "EchoNumbers": 1,
      "EchoTime": 30.0,
      "EchoTrainLength": 64,
      "FlipAngle": 90.0,
      "HighBit": 11,
      "ImageOrientationPatient": [0.99871653002215, -0.0159676088466, 0.04806587280221, 0.01394557556774, 0.99901551122462, 0.0421132907133],
      "ImagePositionPatient": [-775.34877516158, -762.88083489808, -110.20031990047],
      "ImageType": [
        "ORIGINAL",
        "PRIMARY",
        "M",
        "ND",
        "NORM",
        "MOSAIC"
],
      "ImagedNucleus": "1H",
      "ImagingFrequency": 123.261351,
      "InPlanePhaseEncodingDirection": "COL",
      "MRAcquisitionType": "2D",
      "MagneticFieldStrength": 3.0,
      "Manufacturer": "SIEMENS",
      "ManufacturerModelName": "Prisma_fit",
      "Modality": "MR",
      "NumberOfAverages": 1.0,
      "NumberOfPhaseEncodingSteps": 64,
      "PercentPhaseFieldOfView": 100.0,
      "PercentSampling": 100.0,
      "PerformedProcedureStepStartTime": "122231.489000",
      "PhotometricInterpretation": "MONOCHROME2",
      "PixelBandwidth": 2365.0,
      "PixelRepresentation": 0,
      "PixelSpacing": [4.0, 4.0],
      "ProtocolName": "rtfmri_neurofeedback_MTRun2",
      "RepetitionTime": 2000.0,
      "RequestAttributesSequence": [
        {
          "RequestedProcedureID": "1229",
          "ScheduledProcedureStepDescription": "RM_FUNCIONAL",
          "ScheduledProcedureStepID": "1"}
],
      "Rows": 384,
      "SAR": 0.11276449150052,
      "SamplesPerPixel": 1,
      "ScanOptions": "FS",
      "ScanningSequence": "EP",
      "SequenceName": "*epfid2d1_64",
      "SequenceVariant": "SK",
      "SeriesDescription": "rtfmri_neurofeedback_MTRun2",
      "SeriesNumber": 7,
      "SeriesTime": "130639.227000",
      "SliceLocation": -40.647736478957,
      "SliceThickness": 3.0,
      "SmallestImagePixelValue": 0,
      "SoftwareVersions": "syngo MR E11",
      "SpacingBetweenSlices": 2.9999999275937,
      "SpecificCharacterSet": "ISO_IR 100",
      "StudyID": "1229",
      "StudyTime": "122229.753000",
      "TransmitCoilName": "Body",
      "VariableFlipAngleFlag": "N",
      "WindowCenterWidthExplanation": "Algo1",
      "dBdt": 0.0},
    "slices": {}
  },
  "time": {
    "samples": {
      "AcquisitionNumber": [1, 2, 3, 4, 5, 6, 7, 8, 9, 10, 11, 12, 13, 14, 15, 16, 17, 18, 19, 20, 21, 22, 23, 24, 25, 26, 27, 28, 29, 30, 31, 32, 33, 34, 35, 36, 37, 38, 39, 40, 41, 42, 43, 44, 45, 46, 47, 48, 49, 50, 51, 52, 53, 54, 55, 56, 57, 58, 59, 60, 61, 62, 63, 64, 65, 66, 67, 68, 69, 70, 71, 72, 73, 74, 75, 76, 77, 78, 79, 80, 81, 82, 83, 84, 85, 86, 87, 88, 89, 90, 91, 92, 93, 94, 95, 96, 97, 98, 99, 100, 101, 102, 103, 104, 105, 106, 107, 108, 109, 110, 111, 112, 113, 114, 115, 116, 117, 118, 119, 120, 121, 122, 123, 124, 125, 126, 127, 128, 129, 130, 131, 132, 133, 134, 135, 136, 137, 138, 139, 140, 141, 142, 143, 144, 145, 146, 147, 148, 149, 150, 151, 152, 153, 154, 155, 156, 157, 158, 159, 160, 161, 162, 163, 164, 165, 166, 167, 168, 169, 170, 171, 172, 173, 174, 175, 176, 177, 178, 179, 180, 181, 182, 183, 184, 185, 186, 187, 188, 189, 190, 191, 192, 193, 194, 195, 196, 197, 198, 199, 200, 201, 202, 203, 204, 205, 206, 207, 208, 209, 210, 211, 212, 213, 214, 215, 216, 217, 218, 219, 220, 221, 222, 223, 224, 225, 226, 227, 228, 229, 230, 231, 232, 233, 234, 235, 236, 237, 238, 239, 240, 241, 242, 243, 244, 245, 246, 247, 248, 249, 250, 251, 252, 253, 254, 255, 256, 257, 258, 259, 260, 261, 262, 263, 264, 265, 266, 267, 268, 269, 270, 271, 272, 273, 274, 275],
      "AcquisitionTime": ["130636.920000", "130638.920000", "130640.920000", "130642.920000", "130644.920000", "130646.920000", "130648.920000", "130650.920000", "130652.920000", "130654.920000", "130656.920000", "130658.920000", "130700.920000", "130702.920000", "130704.920000", "130706.920000", "130708.920000", "130710.920000", "130712.920000", "130714.920000", "130716.920000", "130718.920000", "130720.920000", "130722.920000", "130724.920000", "130726.920000", "130728.920000", "130730.920000", "130732.920000", "130734.920000", "130736.920000", "130738.920000", "130740.920000", "130742.920000", "130744.920000", "130746.920000", "130748.920000", "130750.920000", "130752.920000", "130754.920000", "130756.920000", "130758.920000", "130800.920000", "130802.920000", "130804.920000", "130806.920000", "130808.920000", "130810.920000", "130812.920000", "130814.920000", "130816.920000", "130818.920000", "130820.920000", "130822.920000", "130824.920000", "130826.920000", "130828.920000", "130830.920000", "130832.920000", "130834.920000", "130836.920000", "130838.920000", "130840.920000", "130842.920000", "130844.920000", "130846.920000", "130848.920000", "130850.920000", "130852.920000", "130854.920000", "130856.920000", "130858.920000", "130900.920000", "130902.920000", "130904.920000", "130906.920000", "130908.920000", "130910.920000", "130912.920000", "130914.920000", "130916.920000", "130918.920000", "130920.920000", "130922.920000", "130924.920000", "130926.920000", "130928.920000", "130930.920000", "130932.920000", "130934.920000", "130936.920000", "130938.920000", "130940.920000", "130942.920000", "130944.920000", "130946.920000", "130948.920000", "130950.920000", "130952.920000", "130954.920000", "130956.920000", "130958.920000", "131000.920000", "131002.920000", "131004.920000", "131006.920000", "131008.920000", "131010.920000", "131012.920000", "131014.920000", "131016.920000", "131018.920000", "131020.920000", "131022.920000", "131024.920000", "131026.920000", "131028.920000", "131030.920000", "131032.920000", "131034.920000", "131036.920000", "131038.920000", "131040.920000", "131042.920000", "131044.920000", "131046.920000", "131048.920000", "131050.920000", "131052.920000", "131054.920000", "131056.920000", "131058.920000", "131100.920000", "131102.920000", "131104.920000", "131106.920000", "131108.920000", "131110.920000", "131112.920000", "131114.920000", "131116.920000", "131118.920000", "131120.920000", "131122.920000", "131124.920000", "131126.920000", "131128.920000", "131130.920000", "131132.920000", "131134.920000", "131136.920000", "131138.920000", "131140.920000", "131142.920000", "131144.920000", "131146.920000", "131148.920000", "131150.920000", "131152.920000", "131154.920000", "131156.920000", "131158.920000", "131200.920000", "131202.920000", "131204.920000", "131206.920000", "131208.920000", "131210.920000", "131212.920000", "131214.920000", "131216.920000", "131218.920000", "131220.920000", "131222.920000", "131224.920000", "131226.920000", "131228.920000", "131230.920000", "131232.920000", "131234.920000", "131236.920000", "131238.920000", "131240.920000", "131242.920000", "131244.920000", "131246.920000", "131248.920000", "131250.920000", "131252.920000", "131254.920000", "131256.920000", "131258.920000", "131300.920000", "131302.920000", "131304.920000", "131306.920000", "131308.920000", "131310.920000", "131312.920000", "131314.920000", "131316.920000", "131318.920000", "131320.920000", "131322.920000", "131324.920000", "131326.920000", "131328.920000", "131330.920000", "131332.920000", "131334.920000", "131336.920000", "131338.920000", "131340.920000", "131342.920000", "131344.920000", "131346.920000", "131348.920000", "131350.920000", "131352.920000", "131354.920000", "131356.920000", "131358.920000", "131400.920000", "131402.920000", "131404.920000", "131406.920000", "131408.920000", "131410.920000", "131412.920000", "131414.920000", "131416.920000", "131418.920000", "131420.920000", "131422.920000", "131424.920000", "131426.920000", "131428.920000", "131430.920000", "131432.920000", "131434.920000", "131436.920000", "131438.920000", "131440.920000", "131442.920000", "131444.920000", "131446.920000", "131448.920000", "131450.920000", "131452.920000", "131454.920000", "131456.920000", "131458.920000", "131500.920000", "131502.920000", "131504.920000", "131506.920000", "131508.920000", "131510.920000", "131512.920000", "131514.920000", "131516.920000", "131518.920000", "131520.920000", "131522.920000", "131524.920000", "131526.920000", "131528.920000", "131530.920000", "131532.920000", "131534.920000", "131536.920000", "131538.920000", "131540.920000", "131542.920000", "131544.920000"],
      "ContentTime": ["130639.229000", "130641.225000", "130643.226000", "130645.226000", "130647.226000", "130649.225000", "130651.225000", "130653.225000", "130655.225000", "130657.225000", "130659.226000", "130701.226000", "130703.226000", "130705.226000", "130707.225000", "130709.225000", "130711.225000", "130713.225000", "130715.225000", "130717.226000", "130719.226000", "130721.226000", "130723.226000", "130725.225000", "130727.225000", "130729.225000", "130731.225000", "130733.225000", "130735.226000", "130737.226000", "130739.226000", "130741.225000", "130743.225000", "130745.225000", "130747.225000", "130749.225000", "130751.225000", "130753.226000", "130755.226000", "130757.226000", "130759.225000", "130801.225000", "130803.225000", "130805.225000", "130807.225000", "130809.226000", "130811.226000", "130813.226000", "130815.226000", "130817.225000", "130819.225000", "130821.225000", "130823.225000", "130825.225000", "130827.226000", "130829.226000", "130831.235000", "130833.226000", "130835.225000", "130837.225000", "130839.225000", "130841.225000", "130843.225000", "130845.226000", "130847.226000", "130849.226000", "130851.225000", "130853.225000", "130855.225000", "130857.225000", "130859.225000", "130901.225000", "130903.226000", "130905.226000", "130907.226000", "130909.225000", "130911.225000", "130913.225000", "130915.225000", "130917.225000", "130919.226000", "130921.226000", "130923.226000", "130925.226000", "130927.225000", "130929.225000", "130931.225000", "130933.225000", "130935.225000", "130937.226000", "130939.226000", "130941.226000", "130943.226000", "130945.225000", "130947.225000", "130949.225000", "130951.225000", "130953.225000", "130955.226000", "130957.226000", "130959.226000", "131001.225000", "131003.225000", "131005.225000", "131007.225000", "131009.225000", "131011.225000", "131013.226000", "131015.226000", "131017.226000", "131019.225000", "131021.225000", "131023.225000", "131025.225000", "131027.225000", "131029.226000", "131031.226000", "131033.226000", "131035.226000", "131037.225000", "131039.225000", "131041.225000", "131043.225000", "131045.225000", "131047.226000", "131049.226000", "131051.226000", "131053.226000", "131055.225000", "131057.225000", "131059.225000", "131101.225000", "131103.225000", "131105.226000", "131107.226000", "131109.226000", "131111.225000", "131113.225000", "131115.225000", "131117.225000", "131119.225000", "131121.226000", "131123.226000", "131125.226000", "131127.226000", "131129.225000", "131131.225000", "131133.225000", "131135.225000", "131137.225000", "131139.226000", "131141.226000", "131143.226000", "131145.226000", "131147.225000", "131149.225000", "131151.225000", "131153.225000", "131155.225000", "131157.226000", "131159.226000", "131201.226000", "131203.226000", "131205.225000", "131207.225000", "131209.225000", "131211.225000", "131213.225000", "131215.226000", "131217.226000", "131219.226000", "131221.225000", "131223.225000", "131225.225000", "131227.225000", "131229.225000", "131231.226000", "131233.226000", "131235.226000", "131237.226000", "131239.225000", "131241.225000", "131243.225000", "131245.225000", "131247.225000", "131249.226000", "131251.226000", "131253.226000", "131255.226000", "131257.225000", "131259.225000", "131301.225000", "131303.225000", "131305.225000", "131307.226000", "131309.226000", "131311.226000", "131313.226000", "131315.225000", "131317.225000", "131319.225000", "131321.225000", "131323.225000", "131325.226000", "131327.226000", "131329.226000", "131331.225000", "131333.225000", "131335.225000", "131337.225000", "131339.225000", "131341.226000", "131343.226000", "131345.226000", "131347.226000", "131349.225000", "131351.225000", "131353.225000", "131355.225000", "131357.225000", "131359.226000", "131401.226000", "131403.226000", "131405.226000", "131407.225000", "131409.225000", "131411.225000", "131413.225000", "131415.225000", "131417.226000", "131419.226000", "131421.226000", "131423.226000", "131425.225000", "131427.225000", "131429.225000", "131431.225000", "131433.225000", "131435.226000", "131437.226000", "131439.226000", "131441.225000", "131443.225000", "131445.225000", "131447.225000", "131449.225000", "131451.226000", "131453.226000", "131455.226000", "131457.226000", "131459.225000", "131501.225000", "131503.225000", "131505.225000", "131507.225000", "131509.226000", "131511.226000", "131513.226000", "131515.226000", "131517.225000", "131519.225000", "131521.225000", "131523.225000", "131525.225000", "131527.226000", "131529.226000", "131531.226000", "131533.225000", "131535.225000", "131537.225000", "131539.225000", "131541.225000", "131543.225000", "131545.226000", "131546.945000"],
      "InstanceCreationTime": ["130639.229000", "130641.225000", "130643.226000", "130645.226000", "130647.226000", "130649.225000", "130651.225000", "130653.225000", "130655.225000", "130657.225000", "130659.226000", "130701.226000", "130703.226000", "130705.226000", "130707.225000", "130709.225000", "130711.225000", "130713.225000", "130715.225000", "130717.226000", "130719.226000", "130721.226000", "130723.226000", "130725.225000", "130727.225000", "130729.225000", "130731.225000", "130733.225000", "130735.226000", "130737.226000", "130739.226000", "130741.225000", "130743.225000", "130745.225000", "130747.225000", "130749.225000", "130751.225000", "130753.226000", "130755.226000", "130757.226000", "130759.225000", "130801.225000", "130803.225000", "130805.225000", "130807.225000", "130809.226000", "130811.226000", "130813.226000", "130815.226000", "130817.225000", "130819.225000", "130821.225000", "130823.225000", "130825.225000", "130827.226000", "130829.226000", "130831.235000", "130833.226000", "130835.225000", "130837.225000", "130839.225000", "130841.225000", "130843.225000", "130845.226000", "130847.226000", "130849.226000", "130851.225000", "130853.225000", "130855.225000", "130857.225000", "130859.225000", "130901.225000", "130903.226000", "130905.226000", "130907.226000", "130909.225000", "130911.225000", "130913.225000", "130915.225000", "130917.225000", "130919.226000", "130921.226000", "130923.226000", "130925.226000", "130927.225000", "130929.225000", "130931.225000", "130933.225000", "130935.225000", "130937.226000", "130939.226000", "130941.226000", "130943.226000", "130945.225000", "130947.225000", "130949.225000", "130951.225000", "130953.225000", "130955.226000", "130957.226000", "130959.226000", "131001.225000", "131003.225000", "131005.225000", "131007.225000", "131009.225000", "131011.225000", "131013.226000", "131015.226000", "131017.226000", "131019.225000", "131021.225000", "131023.225000", "131025.225000", "131027.225000", "131029.226000", "131031.226000", "131033.226000", "131035.226000", "131037.225000", "131039.225000", "131041.225000", "131043.225000", "131045.225000", "131047.226000", "131049.226000", "131051.226000", "131053.226000", "131055.225000", "131057.225000", "131059.225000", "131101.225000", "131103.225000", "131105.226000", "131107.226000", "131109.226000", "131111.225000", "131113.225000", "131115.225000", "131117.225000", "131119.225000", "131121.226000", "131123.226000", "131125.226000", "131127.226000", "131129.225000", "131131.225000", "131133.225000", "131135.225000", "131137.225000", "131139.226000", "131141.226000", "131143.226000", "131145.226000", "131147.225000", "131149.225000", "131151.225000", "131153.225000", "131155.225000", "131157.226000", "131159.226000", "131201.226000", "131203.226000", "131205.225000", "131207.225000", "131209.225000", "131211.225000", "131213.225000", "131215.226000", "131217.226000", "131219.226000", "131221.225000", "131223.225000", "131225.225000", "131227.225000", "131229.225000", "131231.226000", "131233.226000", "131235.226000", "131237.226000", "131239.225000", "131241.225000", "131243.225000", "131245.225000", "131247.225000", "131249.226000", "131251.226000", "131253.226000", "131255.226000", "131257.225000", "131259.225000", "131301.225000", "131303.225000", "131305.225000", "131307.226000", "131309.226000", "131311.226000", "131313.226000", "131315.225000", "131317.225000", "131319.225000", "131321.225000", "131323.225000", "131325.226000", "131327.226000", "131329.226000", "131331.225000", "131333.225000", "131335.225000", "131337.225000", "131339.225000", "131341.226000", "131343.226000", "131345.226000", "131347.226000", "131349.225000", "131351.225000", "131353.225000", "131355.225000", "131357.225000", "131359.226000", "131401.226000", "131403.226000", "131405.226000", "131407.225000", "131409.225000", "131411.225000", "131413.225000", "131415.225000", "131417.226000", "131419.226000", "131421.226000", "131423.226000", "131425.225000", "131427.225000", "131429.225000", "131431.225000", "131433.225000", "131435.226000", "131437.226000", "131439.226000", "131441.225000", "131443.225000", "131445.225000", "131447.225000", "131449.225000", "131451.226000", "131453.226000", "131455.226000", "131457.226000", "131459.225000", "131501.225000", "131503.225000", "131505.225000", "131507.225000", "131509.226000", "131511.226000", "131513.226000", "131515.226000", "131517.225000", "131519.225000", "131521.225000", "131523.225000", "131525.225000", "131527.226000", "131529.226000", "131531.226000", "131533.225000", "131535.225000", "131537.225000", "131539.225000", "131541.225000", "131543.225000", "131545.226000", "131546.945000"],
      "InstanceNumber": [1, 2, 3, 4, 5, 6, 7, 8, 9, 10, 11, 12, 13, 14, 15, 16, 17, 18, 19, 20, 21, 22, 23, 24, 25, 26, 27, 28, 29, 30, 31, 32, 33, 34, 35, 36, 37, 38, 39, 40, 41, 42, 43, 44, 45, 46, 47, 48, 49, 50, 51, 52, 53, 54, 55, 56, 57, 58, 59, 60, 61, 62, 63, 64, 65, 66, 67, 68, 69, 70, 71, 72, 73, 74, 75, 76, 77, 78, 79, 80, 81, 82, 83, 84, 85, 86, 87, 88, 89, 90, 91, 92, 93, 94, 95, 96, 97, 98, 99, 100, 101, 102, 103, 104, 105, 106, 107, 108, 109, 110, 111, 112, 113, 114, 115, 116, 117, 118, 119, 120, 121, 122, 123, 124, 125, 126, 127, 128, 129, 130, 131, 132, 133, 134, 135, 136, 137, 138, 139, 140, 141, 142, 143, 144, 145, 146, 147, 148, 149, 150, 151, 152, 153, 154, 155, 156, 157, 158, 159, 160, 161, 162, 163, 164, 165, 166, 167, 168, 169, 170, 171, 172, 173, 174, 175, 176, 177, 178, 179, 180, 181, 182, 183, 184, 185, 186, 187, 188, 189, 190, 191, 192, 193, 194, 195, 196, 197, 198, 199, 200, 201, 202, 203, 204, 205, 206, 207, 208, 209, 210, 211, 212, 213, 214, 215, 216, 217, 218, 219, 220, 221, 222, 223, 224, 225, 226, 227, 228, 229, 230, 231, 232, 233, 234, 235, 236, 237, 238, 239, 240, 241, 242, 243, 244, 245, 246, 247, 248, 249, 250, 251, 252, 253, 254, 255, 256, 257, 258, 259, 260, 261, 262, 263, 264, 265, 266, 267, 268, 269, 270, 271, 272, 273, 274, 275],
      "LargestImagePixelValue": [1817, 2037, 1753, 1806, 1543, 1903, 1689, 1833, 1557, 1728, 1508, 1798, 1513, 1875, 1963, 2065, 1690, 1764, 1575, 1654, 1723, 2050, 2298, 1724, 1837, 1929, 2076, 1696, 1814, 1505, 2105, 1829, 2119, 1535, 1613, 1565, 1638, 1624, 1744, 1825, 1920, 1592, 1916, 1807, 1536, 1919, 1845, 1918, 1853, 2083, 1684, 1700, 1521, 1635, 1500, 1572, 1693, 2376, 1802, 1784, 2049, 1719, 1731, 1587, 1751, 1591, 1759, 1778, 1615, 1815, 1534, 1616, 1534, 1536, 1702, 2632, 1534, 1582, 1547, 1585, 1950, 1537, 2047, 1984, 1743, 1621, 1598, 1591, 1638, 1756, 1571, 1888, 1572, 1849, 1527, 1515, 1962, 2187, 1754, 1592, 1580, 2097, 1722, 1722, 1534, 1580, 1494, 1679, 1576, 1527, 1641, 1528, 1622, 1542, 1605, 1528, 1777, 1542, 1765, 1536, 1802, 1522, 1582, 1680, 1845, 2314, 1767, 1996, 1847, 1902, 1724, 1674, 1613, 1785, 1697, 1924, 1872, 1852, 1565, 1682, 1567, 1707, 1588, 1546, 1640, 1595, 1747, 1580, 1672, 1537, 1585, 1943, 2308, 1766, 1584, 1561, 1550, 1895, 1975, 1989, 1556, 1561, 1511, 1939, 2064, 1841, 1645, 1670, 2154, 1934, 2444, 1630, 1788, 1732, 1654, 1737, 1524, 1679, 1631, 1933, 1749, 1677, 1683, 1653, 1648, 1537, 1685, 1545, 1545, 1747, 1722, 2442, 1544, 1596, 1567, 1498, 1761, 1567, 1690, 1738, 1637, 2014, 1634, 1620, 1571, 1493, 1534, 1593, 1535, 1628, 1593, 1839, 2174, 1794, 1646, 1604, 1601, 1558, 1529, 1517, 1605, 1568, 1909, 2024, 1813, 1792, 1571, 1670, 1701, 2232, 2129, 1591, 1660, 1599, 1565, 1599, 1566, 1567, 1636, 1556, 1497, 1566, 1555, 1701, 1756, 2649, 2106, 1740, 1540, 1580, 1595, 1579, 1538, 1535, 1844, 1895, 1839, 1934, 1581, 1602, 1587, 1782, 1915, 1577, 1738, 1712, 1753, 2258, 2765, 1706, 1631, 1613, 1573, 1528, 1628],
      "WindowCenter": [678.0, 676.0, 676.0, 677.0, 676.0, 678.0, 677.0, 677.0, 676.0, 677.0, 676.0, 678.0, 677.0, 678.0, 679.0, 679.0, 678.0, 679.0, 679.0, 680.0, 679.0, 680.0, 680.0, 678.0, 680.0, 680.0, 680.0, 678.0, 678.0, 677.0, 679.0, 678.0, 679.0, 677.0, 678.0, 678.0, 679.0, 679.0, 679.0, 678.0, 679.0, 677.0, 679.0, 678.0, 677.0, 679.0, 678.0, 678.0, 678.0, 679.0, 677.0, 677.0, 677.0, 677.0, 677.0, 678.0, 678.0, 680.0, 679.0, 679.0, 679.0, 678.0, 678.0, 677.0, 678.0, 677.0, 678.0, 678.0, 677.0, 677.0, 675.0, 676.0, 677.0, 677.0, 677.0, 680.0, 677.0, 678.0, 678.0, 678.0, 679.0, 677.0, 679.0, 679.0, 678.0, 677.0, 677.0, 677.0, 678.0, 678.0, 677.0, 678.0, 676.0, 677.0, 676.0, 677.0, 678.0, 678.0, 676.0, 677.0, 679.0, 680.0, 678.0, 676.0, 675.0, 676.0, 676.0, 676.0, 676.0, 676.0, 677.0, 676.0, 677.0, 677.0, 677.0, 677.0, 678.0, 678.0, 678.0, 677.0, 678.0, 677.0, 678.0, 678.0, 678.0, 678.0, 677.0, 678.0, 677.0, 677.0, 676.0, 676.0, 676.0, 677.0, 677.0, 678.0, 677.0, 677.0, 676.0, 678.0, 677.0, 678.0, 677.0, 677.0, 678.0, 678.0, 677.0, 676.0, 677.0, 677.0, 678.0, 678.0, 679.0, 678.0, 678.0, 675.0, 679.0, 679.0, 677.0, 676.0, 675.0, 677.0, 677.0, 678.0, 679.0, 679.0, 679.0, 680.0, 680.0, 678.0, 679.0, 676.0, 677.0, 677.0, 676.0, 677.0, 676.0, 677.0, 677.0, 677.0, 676.0, 676.0, 676.0, 677.0, 677.0, 677.0, 678.0, 677.0, 679.0, 679.0, 677.0, 678.0, 675.0, 676.0, 677.0, 677.0, 677.0, 676.0, 677.0, 679.0, 677.0, 677.0, 674.0, 673.0, 673.0, 673.0, 673.0, 674.0, 675.0, 677.0, 679.0, 679.0, 679.0, 677.0, 676.0, 677.0, 678.0, 678.0, 678.0, 678.0, 679.0, 679.0, 680.0, 679.0, 678.0, 677.0, 677.0, 678.0, 679.0, 678.0, 676.0, 675.0, 675.0, 675.0, 675.0, 676.0, 677.0, 676.0, 676.0, 676.0, 676.0, 678.0, 679.0, 680.0, 679.0, 680.0, 677.0, 676.0, 675.0, 676.0, 677.0, 678.0, 679.0, 679.0, 679.0, 679.0, 680.0, 680.0, 678.0, 679.0, 678.0, 679.0, 678.0, 676.0, 678.0, 677.0, 678.0, 678.0, 678.0, 674.0, 675.0, 676.0, 678.0, 677.0, 677.0],
      "WindowWidth": [1463.0, 1458.0, 1456.0, 1459.0, 1458.0, 1462.0, 1458.0, 1460.0, 1456.0, 1459.0, 1457.0, 1461.0, 1458.0, 1463.0, 1465.0, 1466.0, 1462.0, 1464.0, 1464.0, 1468.0, 1466.0, 1466.0, 1467.0, 1463.0, 1467.0, 1467.0, 1467.0, 1463.0, 1463.0, 1459.0, 1463.0, 1461.0, 1464.0, 1461.0, 1462.0, 1463.0, 1464.0, 1464.0, 1464.0, 1463.0, 1464.0, 1460.0, 1463.0, 1462.0, 1460.0, 1464.0, 1461.0, 1463.0, 1462.0, 1463.0, 1459.0, 1460.0, 1458.0, 1459.0, 1460.0, 1462.0, 1462.0, 1468.0, 1464.0, 1465.0, 1465.0, 1461.0, 1461.0, 1460.0, 1462.0, 1459.0, 1462.0, 1462.0, 1460.0, 1460.0, 1455.0, 1457.0, 1458.0, 1460.0, 1460.0, 1466.0, 1458.0, 1462.0, 1462.0, 1462.0, 1464.0, 1460.0, 1465.0, 1464.0, 1462.0, 1459.0, 1459.0, 1459.0, 1462.0, 1462.0, 1459.0, 1461.0, 1456.0, 1458.0, 1456.0, 1458.0, 1462.0, 1461.0, 1458.0, 1460.0, 1464.0, 1467.0, 1461.0, 1457.0, 1454.0, 1456.0, 1455.0, 1457.0, 1457.0, 1457.0, 1459.0, 1457.0, 1458.0, 1459.0, 1460.0, 1459.0, 1461.0, 1461.0, 1462.0, 1459.0, 1462.0, 1460.0, 1463.0, 1462.0, 1461.0, 1462.0, 1458.0, 1461.0, 1460.0, 1459.0, 1456.0, 1456.0, 1457.0, 1460.0, 1459.0, 1461.0, 1460.0, 1460.0, 1458.0, 1462.0, 1459.0, 1460.0, 1458.0, 1460.0, 1461.0, 1461.0, 1459.0, 1457.0, 1458.0, 1458.0, 1461.0, 1462.0, 1463.0, 1461.0, 1461.0, 1455.0, 1464.0, 1463.0, 1459.0, 1456.0, 1455.0, 1458.0, 1459.0, 1462.0, 1463.0, 1464.0, 1464.0, 1466.0, 1466.0, 1462.0, 1464.0, 1457.0, 1460.0, 1458.0, 1457.0, 1458.0, 1456.0, 1459.0, 1458.0, 1460.0, 1457.0, 1457.0, 1457.0, 1458.0, 1459.0, 1458.0, 1460.0, 1460.0, 1464.0, 1464.0, 1460.0, 1462.0, 1454.0, 1457.0, 1458.0, 1458.0, 1458.0, 1457.0, 1460.0, 1465.0, 1459.0, 1458.0, 1452.0, 1448.0, 1449.0, 1449.0, 1450.0, 1451.0, 1454.0, 1458.0, 1464.0, 1464.0, 1465.0, 1459.0, 1458.0, 1458.0, 1462.0, 1462.0, 1462.0, 1462.0, 1465.0, 1463.0, 1466.0, 1463.0, 1460.0, 1459.0, 1458.0, 1462.0, 1463.0, 1462.0, 1458.0, 1453.0, 1454.0, 1453.0, 1454.0, 1457.0, 1459.0, 1457.0, 1457.0, 1457.0, 1457.0, 1460.0, 1464.0, 1466.0, 1465.0, 1466.0, 1458.0, 1456.0, 1455.0, 1457.0, 1459.0, 1461.0, 1464.0, 1463.0, 1465.0, 1464.0, 1465.0, 1466.0, 1462.0, 1464.0, 1463.0, 1463.0, 1461.0, 1457.0, 1460.0, 1460.0, 1461.0, 1461.0, 1461.0, 1452.0, 1453.0, 1457.0, 1461.0, 1459.0, 1459.0]
    },
    "slices": {}
  }
}