{
  "AcquisitionMatrixPE": 64,
  "AcquisitionNumber": 1,
  "AcquisitionTime": "13:27:55.902500",
  "BandwidthPerPixelPhaseEncode": 31.888,
  "BaseResolution": 64,
  "BodyPartExamined": "HEAD",
  "CoilCombinationMethod": "Sum of Squares",
  "ConsistencyInfo": "N4_VE11C_LATEST_20160120",
  "ConversionSoftware": "dcm2niix",
  "ConversionSoftwareVersion": "v1.0.20211006",
  "DerivedVendorReportedEchoSpacing": 0.000489996,
  "DeviceSerialNumber": "167048",
  "DwellTime": 3.3e-06,
  "EchoTime": 0.03,
  "EchoTrainLength": 64,
  "EffectiveEchoSpacing": 0.000489996,
  "FlipAngle": 90,
  "ImageOrientationPatientDICOM": [0.998717, -0.0159676, 0.0480659, 0.0139456, 0.999016, 0.0421133],
  "ImageOrientationText": "Tra>Sag(2.8)>Cor(2.4)",
  "ImageType": [
    "ORIGINAL",
    "PRIMARY",
    "M",
    "ND",
    "NORM",
    "MOSAIC"
],
  "ImagingFrequency": 123.261,
  "InPlanePhaseEncodingDirectionDICOM": "COL",
  "InstitutionAddress": "Azinhaga Santa Comba StreetNo,Coimbra,District,PT,3000",
  "InstitutionName": "ICNAS",
  "InstitutionalDepartmentName": "Department",
  "MRAcquisitionType": "2D",
  "MagneticFieldStrength": 3,
  "Manufacturer": "Siemens",
  "ManufacturersModelName": "Prisma_fit",
  "MatrixCoilMode": "SENSE",
  "Modality": "MR",
  "PartialFourier": 1,
  "PatientPosition": "HFS",
  "PercentPhaseFOV": 100,
  "PercentSampling": 100,
  "PhaseEncodingDirection": "j-",
  "PhaseEncodingSteps": 64,
  "PhaseResolution": 1,
  "PixelBandwidth": 2365,
  "ProcedureStepDescription": "RM_FUNCIONAL",
  "ProtocolName": "rtfmri_neurofeedback_MTRun4",
  "PulseSequenceDetails": "%SiemensSeq%\\ep2d_bold",
  "ReceiveCoilActiveElements": "HE1-4",
  "ReceiveCoilName": "HeadNeck_20",
  "ReconMatrixPE": 64,
  "RepetitionTime": 2,
  "SAR": 0.112764,
  "ScanOptions": "FS",
  "ScanningSequence": "EP",
  "SequenceName": "*epfid2d1_64",
  "SequenceVariant": "SK",
  "SeriesDescription": "rtfmri_neurofeedback_MTRun4",
  "SeriesNumber": 9,
  "ShimSetting": [10161, 2131, 8397, 298, -76, 33, 92, -70],
  "SliceThickness": 3,
  "SliceTiming": [0, 1.02, 0.06, 1.08, 0.12, 1.14, 0.18, 1.2, 0.24, 1.26, 0.3, 1.32, 0.36, 1.38, 0.42, 1.44, 0.48, 1.5, 0.54, 1.56, 0.6, 1.62, 0.66, 1.68, 0.72, 1.74, 0.78, 1.8, 0.84, 1.86, 0.9, 1.92, 0.96],
  "SoftwareVersions": "syngo MR E11",
  "SpacingBetweenSlices": 3,
  "StationName": "MRC35377",
  "TaskName": "nf",
  "TotalReadoutTime": 0.0308698,
  "TxRefAmp": 268.503,
  "dcmmeta_affine": [
    [-3.994866132736206, 0.05578230321407318, 0.14607299864292145, 123.73074340820312],
    [0.06387043744325638, 3.9960620403289795, 0.12416679412126541, -118.021728515625],
    [0.19226348400115967, -0.1684531569480896, 2.993867874145508, -41.873104095458984],
    [0.0, 0.0, 0.0, 1.0]
],
  "dcmmeta_reorient_transform": [
    [0.0, -1.0, 0.0, 63.0],
    [1.0, 0.0, 0.0, 0.0],
    [0.0, 0.0, 1.0, 0.0],
    [0.0, 0.0, 0.0, 1.0]
],
  "dcmmeta_shape": [64, 64, 33, 275],
  "dcmmeta_slice_dim": 2,
  "dcmmeta_version": 0.6,
  "global": {
    "const": {
      "AccessionNumber": "0",
      "AcquisitionMatrix": [64, 0, 0, 64],
      "AngioFlag": "N",
      "BitsAllocated": 16,
      "BitsStored": 12,
      "BodyPartExamined": "HEAD",
      "Columns": 384,
      "EchoNumbers": 1,
      "EchoTime": 30.0,
      "EchoTrainLength": 64,
      "FlipAngle": 90.0,
      "HighBit": 11,
      "ImageOrientationPatient": [0.99871653002215, -0.0159676088466, 0.04806587280221, 0.01394557556774, 0.99901551122462, 0.0421132907133],
      "ImagePositionPatient": [-775.34877516158, -762.88083489808, -110.20031990047],
      "ImageType": [
        "ORIGINAL",
        "PRIMARY",
        "M",
        "ND",
        "NORM",
        "MOSAIC"
],
      "ImagedNucleus": "1H",
      "ImagingFrequency": 123.261354,
      "InPlanePhaseEncodingDirection": "COL",
      "MRAcquisitionType": "2D",
      "MagneticFieldStrength": 3.0,
      "Manufacturer": "SIEMENS",
      "ManufacturerModelName": "Prisma_fit",
      "Modality": "MR",
      "NumberOfAverages": 1.0,
      "NumberOfPhaseEncodingSteps": 64,
      "PercentPhaseFieldOfView": 100.0,
      "PercentSampling": 100.0,
      "PerformedProcedureStepStartTime": "122231.489000",
      "PhotometricInterpretation": "MONOCHROME2",
      "PixelBandwidth": 2365.0,
      "PixelRepresentation": 0,
      "PixelSpacing": [4.0, 4.0],
      "ProtocolName": "rtfmri_neurofeedback_MTRun4",
      "RepetitionTime": 2000.0,
      "RequestAttributesSequence": [
        {
          "RequestedProcedureID": "1229",
          "ScheduledProcedureStepDescription": "RM_FUNCIONAL",
          "ScheduledProcedureStepID": "1"}
],
      "Rows": 384,
      "SAR": 0.11276449150052,
      "SamplesPerPixel": 1,
      "ScanOptions": "FS",
      "ScanningSequence": "EP",
      "SequenceName": "*epfid2d1_64",
      "SequenceVariant": "SK",
      "SeriesDescription": "rtfmri_neurofeedback_MTRun4",
      "SeriesNumber": 9,
      "SeriesTime": "132758.862000",
      "SliceLocation": -40.647736478957,
      "SliceThickness": 3.0,
      "SmallestImagePixelValue": 0,
      "SoftwareVersions": "syngo MR E11",
      "SpacingBetweenSlices": 2.9999999275937,
      "SpecificCharacterSet": "ISO_IR 100",
      "StudyID": "1229",
      "StudyTime": "122229.753000",
      "TransmitCoilName": "Body",
      "VariableFlipAngleFlag": "N",
      "WindowCenterWidthExplanation": "Algo1",
      "dBdt": 0.0},
    "slices": {}
  },
  "time": {
    "samples": {
      "AcquisitionNumber": [1, 2, 3, 4, 5, 6, 7, 8, 9, 10, 11, 12, 13, 14, 15, 16, 17, 18, 19, 20, 21, 22, 23, 24, 25, 26, 27, 28, 29, 30, 31, 32, 33, 34, 35, 36, 37, 38, 39, 40, 41, 42, 43, 44, 45, 46, 47, 48, 49, 50, 51, 52, 53, 54, 55, 56, 57, 58, 59, 60, 61, 62, 63, 64, 65, 66, 67, 68, 69, 70, 71, 72, 73, 74, 75, 76, 77, 78, 79, 80, 81, 82, 83, 84, 85, 86, 87, 88, 89, 90, 91, 92, 93, 94, 95, 96, 97, 98, 99, 100, 101, 102, 103, 104, 105, 106, 107, 108, 109, 110, 111, 112, 113, 114, 115, 116, 117, 118, 119, 120, 121, 122, 123, 124, 125, 126, 127, 128, 129, 130, 131, 132, 133, 134, 135, 136, 137, 138, 139, 140, 141, 142, 143, 144, 145, 146, 147, 148, 149, 150, 151, 152, 153, 154, 155, 156, 157, 158, 159, 160, 161, 162, 163, 164, 165, 166, 167, 168, 169, 170, 171, 172, 173, 174, 175, 176, 177, 178, 179, 180, 181, 182, 183, 184, 185, 186, 187, 188, 189, 190, 191, 192, 193, 194, 195, 196, 197, 198, 199, 200, 201, 202, 203, 204, 205, 206, 207, 208, 209, 210, 211, 212, 213, 214, 215, 216, 217, 218, 219, 220, 221, 222, 223, 224, 225, 226, 227, 228, 229, 230, 231, 232, 233, 234, 235, 236, 237, 238, 239, 240, 241, 242, 243, 244, 245, 246, 247, 248, 249, 250, 251, 252, 253, 254, 255, 256, 257, 258, 259, 260, 261, 262, 263, 264, 265, 266, 267, 268, 269, 270, 271, 272, 273, 274, 275],
      "AcquisitionTime": ["132755.902500", "132757.902500", "132759.902500", "132801.902500", "132803.902500", "132805.902500", "132807.902500", "132809.902500", "132811.902500", "132813.902500", "132815.902500", "132817.902500", "132819.902500", "132821.902500", "132823.902500", "132825.902500", "132827.902500", "132829.902500", "132831.902500", "132833.902500", "132835.902500", "132837.902500", "132839.902500", "132841.902500", "132843.902500", "132845.902500", "132847.902500", "132849.902500", "132851.902500", "132853.902500", "132855.902500", "132857.902500", "132859.902500", "132901.902500", "132903.902500", "132905.902500", "132907.902500", "132909.902500", "132911.902500", "132913.902500", "132915.902500", "132917.902500", "132919.902500", "132921.902500", "132923.902500", "132925.902500", "132927.902500", "132929.902500", "132931.902500", "132933.902500", "132935.902500", "132937.902500", "132939.902500", "132941.902500", "132943.902500", "132945.902500", "132947.902500", "132949.902500", "132951.902500", "132953.902500", "132955.902500", "132957.902500", "132959.902500", "133001.902500", "133003.902500", "133005.902500", "133007.902500", "133009.902500", "133011.902500", "133013.902500", "133015.902500", "133017.902500", "133019.902500", "133021.902500", "133023.902500", "133025.902500", "133027.902500", "133029.902500", "133031.902500", "133033.902500", "133035.902500", "133037.902500", "133039.902500", "133041.902500", "133043.902500", "133045.902500", "133047.902500", "133049.902500", "133051.902500", "133053.902500", "133055.902500", "133057.902500", "133059.902500", "133101.902500", "133103.902500", "133105.902500", "133107.902500", "133109.902500", "133111.902500", "133113.902500", "133115.902500", "133117.902500", "133119.902500", "133121.902500", "133123.902500", "133125.902500", "133127.902500", "133129.902500", "133131.902500", "133133.902500", "133135.902500", "133137.902500", "133139.902500", "133141.902500", "133143.902500", "133145.902500", "133147.902500", "133149.902500", "133151.902500", "133153.902500", "133155.902500", "133157.902500", "133159.902500", "133201.902500", "133203.902500", "133205.902500", "133207.902500", "133209.902500", "133211.902500", "133213.902500", "133215.902500", "133217.902500", "133219.902500", "133221.902500", "133223.902500", "133225.902500", "133227.902500", "133229.902500", "133231.902500", "133233.902500", "133235.902500", "133237.902500", "133239.902500", "133241.902500", "133243.902500", "133245.902500", "133247.902500", "133249.902500", "133251.902500", "133253.902500", "133255.902500", "133257.902500", "133259.902500", "133301.902500", "133303.902500", "133305.902500", "133307.902500", "133309.902500", "133311.902500", "133313.902500", "133315.902500", "133317.902500", "133319.902500", "133321.902500", "133323.902500", "133325.902500", "133327.902500", "133329.902500", "133331.902500", "133333.902500", "133335.902500", "133337.902500", "133339.902500", "133341.902500", "133343.902500", "133345.902500", "133347.902500", "133349.902500", "133351.902500", "133353.902500", "133355.902500", "133357.902500", "133359.902500", "133401.902500", "133403.902500", "133405.902500", "133407.902500", "133409.902500", "133411.902500", "133413.902500", "133415.902500", "133417.902500", "133419.902500", "133421.902500", "133423.902500", "133425.902500", "133427.902500", "133429.902500", "133431.902500", "133433.902500", "133435.902500", "133437.902500", "133439.902500", "133441.902500", "133443.902500", "133445.902500", "133447.902500", "133449.902500", "133451.902500", "133453.902500", "133455.902500", "133457.902500", "133459.902500", "133501.902500", "133503.902500", "133505.902500", "133507.902500", "133509.902500", "133511.902500", "133513.902500", "133515.902500", "133517.902500", "133519.902500", "133521.902500", "133523.902500", "133525.902500", "133527.902500", "133529.902500", "133531.902500", "133533.902500", "133535.902500", "133537.902500", "133539.902500", "133541.902500", "133543.902500", "133545.902500", "133547.902500", "133549.902500", "133551.902500", "133553.902500", "133555.902500", "133557.902500", "133559.902500", "133601.902500", "133603.902500", "133605.902500", "133607.902500", "133609.902500", "133611.902500", "133613.902500", "133615.902500", "133617.902500", "133619.902500", "133621.902500", "133623.902500", "133625.902500", "133627.902500", "133629.902500", "133631.902500", "133633.902500", "133635.902500", "133637.902500", "133639.902500", "133641.902500", "133643.902500", "133645.902500", "133647.902500", "133649.902500", "133651.902500", "133653.902500", "133655.902500", "133657.902500", "133659.902500", "133701.902500", "133703.902500"],
      "ContentTime": ["132758.865000", "132800.861000", "132802.861000", "132804.861000", "132806.861000", "132808.860000", "132810.860000", "132812.860000", "132814.860000", "132816.861000", "132818.861000", "132820.861000", "132822.861000", "132824.861000", "132826.860000", "132828.860000", "132830.860000", "132832.861000", "132834.861000", "132836.861000", "132838.861000", "132840.861000", "132842.861000", "132844.860000", "132846.860000", "132848.860000", "132850.861000", "132852.861000", "132854.861000", "132856.861000", "132858.861000", "132900.860000", "132902.860000", "132904.860000", "132906.860000", "132908.861000", "132910.861000", "132912.861000", "132914.861000", "132916.861000", "132918.860000", "132920.860000", "132922.860000", "132924.860000", "132926.861000", "132928.861000", "132930.861000", "132932.861000", "132934.861000", "132936.860000", "132938.860000", "132940.860000", "132942.861000", "132944.861000", "132946.861000", "132948.861000", "132950.861000", "132952.861000", "132954.860000", "132956.860000", "132958.860000", "133000.861000", "133002.861000", "133004.861000", "133006.861000", "133008.861000", "133010.860000", "133012.860000", "133014.860000", "133016.860000", "133018.861000", "133020.861000", "133022.861000", "133024.861000", "133026.861000", "133028.860000", "133030.860000", "133032.860000", "133034.860000", "133036.861000", "133038.861000", "133040.861000", "133042.861000", "133044.861000", "133046.860000", "133048.860000", "133050.860000", "133052.861000", "133054.861000", "133056.861000", "133058.861000", "133100.861000", "133102.861000", "133104.860000", "133106.860000", "133108.860000", "133110.861000", "133112.861000", "133114.861000", "133116.861000", "133118.861000", "133120.860000", "133122.860000", "133124.860000", "133126.860000", "133128.861000", "133130.861000", "133132.861000", "133134.861000", "133136.861000", "133138.860000", "133140.860000", "133142.860000", "133144.860000", "133146.861000", "133148.861000", "133150.861000", "133152.861000", "133154.861000", "133156.860000", "133158.860000", "133200.860000", "133202.861000", "133204.861000", "133206.861000", "133208.861000", "133210.861000", "133212.861000", "133214.860000", "133216.860000", "133218.860000", "133220.861000", "133222.876000", "133224.861000", "133226.861000", "133228.861000", "133230.860000", "133232.860000", "133234.860000", "133236.860000", "133238.861000", "133240.861000", "133242.861000", "133244.861000", "133246.861000", "133248.860000", "133250.860000", "133252.860000", "133254.860000", "133256.861000", "133258.861000", "133300.861000", "133302.861000", "133304.861000", "133306.860000", "133308.860000", "133310.860000", "133312.861000", "133314.861000", "133316.861000", "133318.861000", "133320.861000", "133322.861000", "133324.860000", "133326.860000", "133328.860000", "133330.861000", "133332.861000", "133334.861000", "133336.861000", "133338.861000", "133340.860000", "133342.860000", "133344.860000", "133346.860000", "133348.861000", "133350.861000", "133352.861000", "133354.861000", "133356.861000", "133358.860000", "133400.860000", "133402.860000", "133404.860000", "133406.861000", "133408.861000", "133410.861000", "133412.861000", "133414.861000", "133416.860000", "133418.860000", "133420.860000", "133422.861000", "133424.861000", "133426.861000", "133428.861000", "133430.861000", "133432.861000", "133434.860000", "133436.860000", "133438.860000", "133440.861000", "133442.861000", "133444.861000", "133446.861000", "133448.861000", "133450.860000", "133452.860000", "133454.860000", "133456.860000", "133458.861000", "133500.861000", "133502.861000", "133504.861000", "133506.861000", "133508.860000", "133510.860000", "133512.860000", "133514.861000", "133516.861000", "133518.861000", "133520.861000", "133522.861000", "133524.861000", "133526.860000", "133528.860000", "133530.860000", "133532.861000", "133534.861000", "133536.861000", "133538.861000", "133540.861000", "133542.861000", "133544.860000", "133546.860000", "133548.860000", "133550.861000", "133552.861000", "133554.861000", "133556.861000", "133558.861000", "133600.860000", "133602.860000", "133604.860000", "133606.860000", "133608.861000", "133610.861000", "133612.861000", "133614.861000", "133616.861000", "133618.860000", "133620.860000", "133622.860000", "133624.861000", "133626.861000", "133628.861000", "133630.861000", "133632.861000", "133634.861000", "133636.860000", "133638.860000", "133640.860000", "133642.861000", "133644.861000", "133646.861000", "133648.861000", "133650.861000", "133652.860000", "133654.860000", "133656.860000", "133658.860000", "133700.861000", "133702.861000", "133704.861000", "133706.563000"],
      "InstanceCreationTime": ["132758.865000", "132800.861000", "132802.861000", "132804.861000", "132806.861000", "132808.860000", "132810.860000", "132812.860000", "132814.860000", "132816.861000", "132818.861000", "132820.861000", "132822.861000", "132824.861000", "132826.860000", "132828.860000", "132830.860000", "132832.861000", "132834.861000", "132836.861000", "132838.861000", "132840.861000", "132842.861000", "132844.860000", "132846.860000", "132848.860000", "132850.861000", "132852.861000", "132854.861000", "132856.861000", "132858.861000", "132900.860000", "132902.860000", "132904.860000", "132906.860000", "132908.861000", "132910.861000", "132912.861000", "132914.861000", "132916.861000", "132918.860000", "132920.860000", "132922.860000", "132924.860000", "132926.861000", "132928.861000", "132930.861000", "132932.861000", "132934.861000", "132936.860000", "132938.860000", "132940.860000", "132942.861000", "132944.861000", "132946.861000", "132948.861000", "132950.861000", "132952.861000", "132954.860000", "132956.860000", "132958.860000", "133000.861000", "133002.861000", "133004.861000", "133006.861000", "133008.861000", "133010.860000", "133012.860000", "133014.860000", "133016.860000", "133018.861000", "133020.861000", "133022.861000", "133024.861000", "133026.861000", "133028.860000", "133030.860000", "133032.860000", "133034.860000", "133036.861000", "133038.861000", "133040.861000", "133042.861000", "133044.861000", "133046.860000", "133048.860000", "133050.860000", "133052.861000", "133054.861000", "133056.861000", "133058.861000", "133100.861000", "133102.861000", "133104.860000", "133106.860000", "133108.860000", "133110.861000", "133112.861000", "133114.861000", "133116.861000", "133118.861000", "133120.860000", "133122.860000", "133124.860000", "133126.860000", "133128.861000", "133130.861000", "133132.861000", "133134.861000", "133136.861000", "133138.860000", "133140.860000", "133142.860000", "133144.860000", "133146.861000", "133148.861000", "133150.861000", "133152.861000", "133154.861000", "133156.860000", "133158.860000", "133200.860000", "133202.861000", "133204.861000", "133206.861000", "133208.861000", "133210.861000", "133212.861000", "133214.860000", "133216.860000", "133218.860000", "133220.861000", "133222.876000", "133224.861000", "133226.861000", "133228.861000", "133230.860000", "133232.860000", "133234.860000", "133236.860000", "133238.861000", "133240.861000", "133242.861000", "133244.861000", "133246.861000", "133248.860000", "133250.860000", "133252.860000", "133254.860000", "133256.861000", "133258.861000", "133300.861000", "133302.861000", "133304.861000", "133306.860000", "133308.860000", "133310.860000", "133312.861000", "133314.861000", "133316.861000", "133318.861000", "133320.861000", "133322.861000", "133324.860000", "133326.860000", "133328.860000", "133330.861000", "133332.861000", "133334.861000", "133336.861000", "133338.861000", "133340.860000", "133342.860000", "133344.860000", "133346.860000", "133348.861000", "133350.861000", "133352.861000", "133354.861000", "133356.861000", "133358.860000", "133400.860000", "133402.860000", "133404.860000", "133406.861000", "133408.861000", "133410.861000", "133412.861000", "133414.861000", "133416.860000", "133418.860000", "133420.860000", "133422.861000", "133424.861000", "133426.861000", "133428.861000", "133430.861000", "133432.861000", "133434.860000", "133436.860000", "133438.860000", "133440.861000", "133442.861000", "133444.861000", "133446.861000", "133448.861000", "133450.860000", "133452.860000", "133454.860000", "133456.860000", "133458.861000", "133500.861000", "133502.861000", "133504.861000", "133506.861000", "133508.860000", "133510.860000", "133512.860000", "133514.861000", "133516.861000", "133518.861000", "133520.861000", "133522.861000", "133524.861000", "133526.860000", "133528.860000", "133530.860000", "133532.861000", "133534.861000", "133536.861000", "133538.861000", "133540.861000", "133542.861000", "133544.860000", "133546.860000", "133548.860000", "133550.861000", "133552.861000", "133554.861000", "133556.861000", "133558.861000", "133600.860000", "133602.860000", "133604.860000", "133606.860000", "133608.861000", "133610.861000", "133612.861000", "133614.861000", "133616.861000", "133618.860000", "133620.860000", "133622.860000", "133624.861000", "133626.861000", "133628.861000", "133630.861000", "133632.861000", "133634.861000", "133636.860000", "133638.860000", "133640.860000", "133642.861000", "133644.861000", "133646.861000", "133648.861000", "133650.861000", "133652.860000", "133654.860000", "133656.860000", "133658.860000", "133700.861000", "133702.861000", "133704.861000", "133706.563000"],
      "InstanceNumber": [1, 2, 3, 4, 5, 6, 7, 8, 9, 10, 11, 12, 13, 14, 15, 16, 17, 18, 19, 20, 21, 22, 23, 24, 25, 26, 27, 28, 29, 30, 31, 32, 33, 34, 35, 36, 37, 38, 39, 40, 41, 42, 43, 44, 45, 46, 47, 48, 49, 50, 51, 52, 53, 54, 55, 56, 57, 58, 59, 60, 61, 62, 63, 64, 65, 66, 67, 68, 69, 70, 71, 72, 73, 74, 75, 76, 77, 78, 79, 80, 81, 82, 83, 84, 85, 86, 87, 88, 89, 90, 91, 92, 93, 94, 95, 96, 97, 98, 99, 100, 101, 102, 103, 104, 105, 106, 107, 108, 109, 110, 111, 112, 113, 114, 115, 116, 117, 118, 119, 120, 121, 122, 123, 124, 125, 126, 127, 128, 129, 130, 131, 132, 133, 134, 135, 136, 137, 138, 139, 140, 141, 142, 143, 144, 145, 146, 147, 148, 149, 150, 151, 152, 153, 154, 155, 156, 157, 158, 159, 160, 161, 162, 163, 164, 165, 166, 167, 168, 169, 170, 171, 172, 173, 174, 175, 176, 177, 178, 179, 180, 181, 182, 183, 184, 185, 186, 187, 188, 189, 190, 191, 192, 193, 194, 195, 196, 197, 198, 199, 200, 201, 202, 203, 204, 205, 206, 207, 208, 209, 210, 211, 212, 213, 214, 215, 216, 217, 218, 219, 220, 221, 222, 223, 224, 225, 226, 227, 228, 229, 230, 231, 232, 233, 234, 235, 236, 237, 238, 239, 240, 241, 242, 243, 244, 245, 246, 247, 248, 249, 250, 251, 252, 253, 254, 255, 256, 257, 258, 259, 260, 261, 262, 263, 264, 265, 266, 267, 268, 269, 270, 271, 272, 273, 274, 275],
      "LargestImagePixelValue": [2232, 1573, 1513, 1886, 1978, 1717, 1700, 1650, 2371, 1842, 1625, 1641, 1519, 1885, 1667, 2012, 1561, 2220, 1624, 1737, 1531, 1780, 1511, 1704, 2023, 2059, 1551, 1570, 1534, 2020, 1825, 1951, 2079, 1705, 1726, 1556, 1584, 1595, 1526, 1681, 1588, 1532, 1667, 1549, 1678, 1571, 1713, 1730, 1964, 1601, 1665, 1537, 1590, 1940, 1655, 1805, 2166, 1921, 1907, 1840, 1886, 1761, 1811, 2164, 1569, 1797, 1538, 1863, 1722, 2551, 2052, 1791, 1546, 1966, 1799, 1694, 1599, 1530, 1515, 1528, 1545, 1781, 1835, 1730, 1954, 1561, 1801, 1808, 2399, 1489, 2108, 1667, 1951, 2754, 1783, 1701, 1624, 1542, 1568, 1557, 1570, 1737, 2098, 2456, 2656, 1865, 1524, 1825, 1637, 2050, 1511, 1541, 2219, 2924, 1807, 1796, 1534, 1814, 1678, 1664, 1796, 1846, 1639, 1586, 1812, 1781, 1915, 1839, 2540, 1636, 1721, 1744, 1816, 1569, 1987, 2884, 1868, 1543, 1540, 1833, 2487, 2742, 1941, 1609, 1864, 1530, 1508, 1809, 1852, 1915, 1567, 1793, 1865, 2051, 1829, 1948, 1877, 1843, 2141, 2106, 2033, 1543, 1847, 1558, 1648, 1773, 2102, 1522, 1551, 2052, 1936, 2129, 1933, 1650, 1909, 1991, 1940, 1699, 1517, 1619, 1864, 2079, 1981, 1558, 1802, 1841, 1958, 1915, 1629, 1905, 1777, 1668, 1986, 1980, 1681, 1526, 1657, 1628, 1751, 2764, 1995, 1611, 1680, 1736, 1738, 1945, 1965, 2030, 1725, 2358, 2048, 2004, 1814, 1976, 1832, 2025, 1821, 2054, 1997, 2393, 2015, 1859, 1910, 1826, 1929, 2499, 2679, 1758, 1752, 1535, 2136, 1936, 2248, 1857, 1513, 2148, 2154, 2813, 1532, 1672, 1795, 2370, 2679, 1951, 1842, 1727, 1874, 2186, 2154, 2175, 1616, 2029, 1982, 2205, 1504, 1730, 1840, 2135, 2151, 1515, 1844, 2458, 3126, 2078, 1998, 1694, 2013, 2110, 1914, 1939, 1711, 1519, 1494, 2011, 2290],
      "WindowCenter": [680.0, 676.0, 676.0, 678.0, 679.0, 677.0, 676.0, 675.0, 677.0, 677.0, 677.0, 677.0, 677.0, 678.0, 678.0, 679.0, 678.0, 680.0, 677.0, 677.0, 675.0, 677.0, 676.0, 678.0, 678.0, 678.0, 677.0, 677.0, 677.0, 678.0, 678.0, 679.0, 679.0, 677.0, 676.0, 676.0, 676.0, 676.0, 676.0, 677.0, 676.0, 677.0, 677.0, 677.0, 677.0, 677.0, 678.0, 678.0, 678.0, 676.0, 677.0, 676.0, 677.0, 678.0, 678.0, 679.0, 680.0, 679.0, 678.0, 677.0, 678.0, 678.0, 677.0, 678.0, 677.0, 678.0, 677.0, 677.0, 676.0, 677.0, 676.0, 677.0, 677.0, 677.0, 675.0, 673.0, 672.0, 673.0, 674.0, 675.0, 676.0, 677.0, 676.0, 677.0, 679.0, 678.0, 679.0, 677.0, 678.0, 673.0, 679.0, 678.0, 678.0, 678.0, 675.0, 674.0, 674.0, 675.0, 676.0, 678.0, 678.0, 680.0, 680.0, 680.0, 679.0, 678.0, 677.0, 678.0, 676.0, 677.0, 678.0, 678.0, 679.0, 679.0, 675.0, 674.0, 673.0, 675.0, 675.0, 675.0, 676.0, 678.0, 677.0, 677.0, 677.0, 679.0, 679.0, 678.0, 678.0, 676.0, 675.0, 676.0, 678.0, 678.0, 677.0, 678.0, 675.0, 677.0, 678.0, 677.0, 678.0, 677.0, 676.0, 675.0, 677.0, 677.0, 676.0, 677.0, 676.0, 677.0, 678.0, 678.0, 678.0, 677.0, 676.0, 677.0, 679.0, 678.0, 678.0, 677.0, 677.0, 675.0, 677.0, 676.0, 676.0, 675.0, 676.0, 675.0, 676.0, 679.0, 678.0, 677.0, 677.0, 676.0, 676.0, 677.0, 677.0, 676.0, 678.0, 677.0, 677.0, 676.0, 676.0, 676.0, 677.0, 676.0, 675.0, 676.0, 675.0, 677.0, 677.0, 676.0, 676.0, 676.0, 676.0, 677.0, 678.0, 677.0, 678.0, 680.0, 679.0, 678.0, 678.0, 678.0, 677.0, 678.0, 678.0, 680.0, 679.0, 681.0, 679.0, 679.0, 679.0, 679.0, 678.0, 680.0, 679.0, 680.0, 679.0, 678.0, 677.0, 677.0, 678.0, 677.0, 676.0, 676.0, 676.0, 674.0, 676.0, 676.0, 678.0, 678.0, 678.0, 679.0, 677.0, 679.0, 678.0, 679.0, 676.0, 677.0, 679.0, 679.0, 678.0, 675.0, 675.0, 676.0, 678.0, 678.0, 678.0, 678.0, 676.0, 677.0, 676.0, 677.0, 676.0, 677.0, 678.0, 678.0, 679.0, 678.0, 678.0, 679.0, 678.0, 675.0, 675.0, 676.0, 677.0, 677.0, 674.0, 674.0, 674.0, 675.0, 676.0, 677.0, 678.0],
      "WindowWidth": [1467.0, 1457.0, 1456.0, 1461.0, 1463.0, 1458.0, 1456.0, 1454.0, 1460.0, 1460.0, 1459.0, 1459.0, 1458.0, 1461.0, 1461.0, 1464.0, 1461.0, 1466.0, 1459.0, 1458.0, 1454.0, 1458.0, 1458.0, 1461.0, 1463.0, 1463.0, 1459.0, 1459.0, 1458.0, 1461.0, 1462.0, 1463.0, 1463.0, 1458.0, 1456.0, 1455.0, 1457.0, 1457.0, 1457.0, 1459.0, 1457.0, 1458.0, 1459.0, 1458.0, 1460.0, 1459.0, 1463.0, 1461.0, 1461.0, 1456.0, 1458.0, 1457.0, 1459.0, 1462.0, 1462.0, 1463.0, 1467.0, 1463.0, 1462.0, 1460.0, 1460.0, 1460.0, 1460.0, 1463.0, 1459.0, 1461.0, 1459.0, 1459.0, 1456.0, 1459.0, 1458.0, 1458.0, 1460.0, 1459.0, 1453.0, 1449.0, 1447.0, 1447.0, 1451.0, 1455.0, 1456.0, 1458.0, 1457.0, 1458.0, 1463.0, 1460.0, 1463.0, 1458.0, 1461.0, 1449.0, 1464.0, 1462.0, 1460.0, 1462.0, 1452.0, 1452.0, 1452.0, 1452.0, 1457.0, 1462.0, 1463.0, 1466.0, 1466.0, 1466.0, 1464.0, 1461.0, 1459.0, 1461.0, 1457.0, 1459.0, 1461.0, 1463.0, 1464.0, 1464.0, 1452.0, 1451.0, 1448.0, 1453.0, 1454.0, 1454.0, 1457.0, 1461.0, 1458.0, 1459.0, 1460.0, 1464.0, 1464.0, 1460.0, 1462.0, 1456.0, 1455.0, 1457.0, 1461.0, 1461.0, 1460.0, 1461.0, 1454.0, 1459.0, 1460.0, 1459.0, 1460.0, 1459.0, 1456.0, 1454.0, 1458.0, 1458.0, 1457.0, 1457.0, 1455.0, 1459.0, 1461.0, 1462.0, 1461.0, 1459.0, 1456.0, 1459.0, 1465.0, 1461.0, 1461.0, 1458.0, 1459.0, 1454.0, 1458.0, 1457.0, 1456.0, 1454.0, 1457.0, 1455.0, 1456.0, 1463.0, 1461.0, 1458.0, 1458.0, 1455.0, 1457.0, 1457.0, 1458.0, 1456.0, 1461.0, 1460.0, 1458.0, 1456.0, 1455.0, 1456.0, 1459.0, 1455.0, 1454.0, 1455.0, 1454.0, 1459.0, 1460.0, 1455.0, 1457.0, 1457.0, 1457.0, 1459.0, 1462.0, 1460.0, 1460.0, 1466.0, 1463.0, 1461.0, 1460.0, 1461.0, 1459.0, 1461.0, 1462.0, 1467.0, 1464.0, 1468.0, 1463.0, 1465.0, 1463.0, 1465.0, 1462.0, 1466.0, 1464.0, 1468.0, 1465.0, 1462.0, 1458.0, 1460.0, 1461.0, 1459.0, 1457.0, 1456.0, 1457.0, 1452.0, 1456.0, 1457.0, 1462.0, 1461.0, 1462.0, 1463.0, 1459.0, 1463.0, 1460.0, 1463.0, 1456.0, 1460.0, 1464.0, 1463.0, 1461.0, 1454.0, 1454.0, 1457.0, 1461.0, 1462.0, 1461.0, 1461.0, 1457.0, 1459.0, 1457.0, 1459.0, 1456.0, 1460.0, 1460.0, 1462.0, 1463.0, 1462.0, 1462.0, 1464.0, 1462.0, 1453.0, 1453.0, 1457.0, 1459.0, 1457.0, 1452.0, 1451.0, 1450.0, 1453.0, 1456.0, 1459.0, 1460.0]
    },
    "slices": {}
  }
}