{
  "AcquisitionMatrixPE": 64,
  "AcquisitionNumber": 1,
  "AcquisitionTime": "18:08:47.942500",
  "BandwidthPerPixelPhaseEncode": 31.888,
  "BaseResolution": 64,
  "BodyPartExamined": "HEAD",
  "CoilCombinationMethod": "Sum of Squares",
  "ConsistencyInfo": "N4_VE11C_LATEST_20160120",
  "ConversionSoftware": "dcm2niix",
  "ConversionSoftwareVersion": "v1.0.20211006",
  "DerivedVendorReportedEchoSpacing": 0.000489996,
  "DeviceSerialNumber": "167048",
  "EchoTime": 0.03,
  "EchoTrainLength": 64,
  "EffectiveEchoSpacing": 0.000489996,
  "FlipAngle": 90,
  "ImageOrientationPatientDICOM": [0.998984, -0.0187943, 0.0409537, 0.0226702, 0.995091, -0.0963319],
  "ImageType": [
    "ORIGINAL",
    "PRIMARY",
    "M",
    "ND",
    "NORM",
    "MOSAIC"
],
  "ImagingFrequency": 123.261,
  "InPlanePhaseEncodingDirectionDICOM": "COL",
  "InstitutionAddress": "Azinhaga Santa Comba StreetNo,Coimbra,District,PT,3000",
  "InstitutionName": "ICNAS",
  "MRAcquisitionType": "2D",
  "MagneticFieldStrength": 3,
  "Manufacturer": "Siemens",
  "ManufacturersModelName": "Prisma_fit",
  "MatrixCoilMode": "SENSE",
  "Modality": "MR",
  "PartialFourier": 1,
  "PatientPosition": "HFS",
  "PercentPhaseFOV": 100,
  "PercentSampling": 100,
  "PhaseEncodingDirection": "j-",
  "PhaseEncodingSteps": 64,
  "PhaseResolution": 1,
  "PixelBandwidth": 2365,
  "ProcedureStepDescription": "RM_FUNCIONAL",
  "ProtocolName": "rtfmri_neurofeedback_MTRun1",
  "PulseSequenceDetails": "%SiemensSeq%\\ep2d_bold",
  "ReceiveCoilActiveElements": "HE1-4",
  "ReceiveCoilName": "HeadNeck_20",
  "ReconMatrixPE": 64,
  "RepetitionTime": 2,
  "SAR": 0.149885,
  "ScanOptions": "FS",
  "ScanningSequence": "EP",
  "SequenceName": "*epfid2d1_64",
  "SequenceVariant": "SK",
  "SeriesDescription": "rtfmri_neurofeedback_MTRun1",
  "SeriesNumber": 4,
  "ShimSetting": [10184, 2097, 8360, 225, 42, -138, 169, -54],
  "SliceThickness": 3,
  "SliceTiming": [0, 1.02, 0.06, 1.08, 0.12, 1.14, 0.18, 1.2, 0.24, 1.26, 0.3, 1.32, 0.36, 1.38, 0.42, 1.44, 0.48, 1.5, 0.54, 1.56, 0.6, 1.62, 0.66, 1.68, 0.72, 1.74, 0.78, 1.8, 0.84, 1.86, 0.9, 1.92, 0.96],
  "SoftwareVersions": "syngo MR E11",
  "SpacingBetweenSlices": 3,
  "StationName": "MRC35377",
  "TaskName": "nf",
  "TotalReadoutTime": 0.0308698,
  "TxRefAmp": 309.684,
  "dcmmeta_affine": [
    [-3.9959359169006348, 0.0906808003783226, 0.11682650446891785, 124.96842193603516],
    [0.07517720013856888, 3.9803640842437744, -0.29148736596107483, -102.29181671142578],
    [0.16381479799747467, 0.38532760739326477, 2.983518123626709, -63.775028228759766],
    [0.0, 0.0, 0.0, 1.0]
],
  "dcmmeta_reorient_transform": [
    [0.0, -1.0, 0.0, 63.0],
    [1.0, 0.0, 0.0, 0.0],
    [0.0, 0.0, 1.0, 0.0],
    [0.0, 0.0, 0.0, 1.0]
],
  "dcmmeta_shape": [64, 64, 33, 275],
  "dcmmeta_slice_dim": 2,
  "dcmmeta_version": 0.6,
  "global": {
    "const": {
      "AccessionNumber": "0",
      "AcquisitionMatrix": [64, 0, 0, 64],
      "AngioFlag": "N",
      "BitsAllocated": 16,
      "BitsStored": 12,
      "BodyPartExamined": "HEAD",
      "Columns": 384,
      "EchoNumbers": 1,
      "EchoTime": 30.0,
      "EchoTrainLength": 64,
      "FlipAngle": 90.0,
      "HighBit": 11,
      "ImageOrientationPatient": [0.998984, -0.0187943, 0.0409537, 0.0226702, 0.995091, -0.0963319],
      "ImagePositionPatient": [-784.54, -773.301, -4.05734],
      "ImageType": [
        "ORIGINAL",
        "PRIMARY",
        "M",
        "ND",
        "NORM",
        "MOSAIC"
],
      "ImagedNucleus": "1H",
      "ImagingFrequency": 123.261,
      "InPlanePhaseEncodingDirection": "COL",
      "MRAcquisitionType": "2D",
      "MagneticFieldStrength": 3.0,
      "Manufacturer": "SIEMENS",
      "ManufacturerModelName": "Prisma_fit",
      "Modality": "MR",
      "NumberOfAverages": 1.0,
      "NumberOfFrames": 1,
      "NumberOfPhaseEncodingSteps": 64,
      "PercentPhaseFieldOfView": 100.0,
      "PercentSampling": 100.0,
      "PerformedProcedureStepStartTime": "173837.747000",
      "PhotometricInterpretation": "MONOCHROME2",
      "PixelBandwidth": 2365.0,
      "PixelRepresentation": 0,
      "PixelSpacing": [4.0, 4.0],
      "ProtocolName": "rtfmri_neurofeedback_MTRun1",
      "RepetitionTime": 2000.0,
      "RequestAttributesSequence": [
        {
          "RequestedProcedureID": "1265",
          "ScheduledProcedureStepDescription": "RM_FUNCIONAL",
          "ScheduledProcedureStepID": "1"}
],
      "Rows": 384,
      "SAR": 0.149885,
      "SamplesPerPixel": 1,
      "ScanOptions": "FS",
      "ScanningSequence": "EP",
      "SequenceName": "*epfid2d1_64",
      "SequenceVariant": "SK",
      "SeriesDescription": "rtfmri_neurofeedback_MTRun1",
      "SeriesNumber": 4,
      "SeriesTime": "180850.562000",
      "SliceLocation": -48.6191,
      "SliceThickness": 3.0,
      "SmallestImagePixelValue": 0,
      "SoftwareVersions": "syngo MR E11",
      "SpacingBetweenSlices": 3.0,
      "SpecificCharacterSet": "ISO_IR 100",
      "StudyID": "1265",
      "StudyTime": "173836.084000",
      "TransmitCoilName": "Body",
      "VariableFlipAngleFlag": "N",
      "WindowCenterWidthExplanation": "Algo1",
      "dBdt": 0.0},
    "slices": {}
  },
  "time": {
    "samples": {
      "AcquisitionNumber": [1, 2, 3, 4, 5, 6, 7, 8, 9, 10, 11, 12, 13, 14, 15, 16, 17, 18, 19, 20, 21, 22, 23, 24, 25, 26, 27, 28, 29, 30, 31, 32, 33, 34, 35, 36, 37, 38, 39, 40, 41, 42, 43, 44, 45, 46, 47, 48, 49, 50, 51, 52, 53, 54, 55, 56, 57, 58, 59, 60, 61, 62, 63, 64, 65, 66, 67, 68, 69, 70, 71, 72, 73, 74, 75, 76, 77, 78, 79, 80, 81, 82, 83, 84, 85, 86, 87, 88, 89, 90, 91, 92, 93, 94, 95, 96, 97, 98, 99, 100, 101, 102, 103, 104, 105, 106, 107, 108, 109, 110, 111, 112, 113, 114, 115, 116, 117, 118, 119, 120, 121, 122, 123, 124, 125, 126, 127, 128, 129, 130, 131, 132, 133, 134, 135, 136, 137, 138, 139, 140, 141, 142, 143, 144, 145, 146, 147, 148, 149, 150, 151, 152, 153, 154, 155, 156, 157, 158, 159, 160, 161, 162, 163, 164, 165, 166, 167, 168, 169, 170, 171, 172, 173, 174, 175, 176, 177, 178, 179, 180, 181, 182, 183, 184, 185, 186, 187, 188, 189, 190, 191, 192, 193, 194, 195, 196, 197, 198, 199, 200, 201, 202, 203, 204, 205, 206, 207, 208, 209, 210, 211, 212, 213, 214, 215, 216, 217, 218, 219, 220, 221, 222, 223, 224, 225, 226, 227, 228, 229, 230, 231, 232, 233, 234, 235, 236, 237, 238, 239, 240, 241, 242, 243, 244, 245, 246, 247, 248, 249, 250, 251, 252, 253, 254, 255, 256, 257, 258, 259, 260, 261, 262, 263, 264, 265, 266, 267, 268, 269, 270, 271, 272, 273, 274, 275],
      "AcquisitionTime": ["180847.942500", "180849.942500", "180851.942500", "180853.942500", "180855.942500", "180857.942500", "180859.942500", "180901.942500", "180903.942500", "180905.942500", "180907.942500", "180909.942500", "180911.942500", "180913.942500", "180915.942500", "180917.942500", "180919.942500", "180921.942500", "180923.942500", "180925.942500", "180927.942500", "180929.942500", "180931.942500", "180933.942500", "180935.942500", "180937.942500", "180939.942500", "180941.942500", "180943.942500", "180945.942500", "180947.942500", "180949.942500", "180951.942500", "180953.942500", "180955.942500", "180957.942500", "180959.942500", "181001.942500", "181003.942500", "181005.942500", "181007.942500", "181009.942500", "181011.942500", "181013.942500", "181015.942500", "181017.942500", "181019.942500", "181021.942500", "181023.942500", "181025.942500", "181027.942500", "181029.942500", "181031.942500", "181033.942500", "181035.942500", "181037.942500", "181039.942500", "181041.942500", "181043.942500", "181045.942500", "181047.942500", "181049.942500", "181051.942500", "181053.942500", "181055.942500", "181057.942500", "181059.942500", "181101.942500", "181103.942500", "181105.942500", "181107.942500", "181109.942500", "181111.942500", "181113.942500", "181115.942500", "181117.942500", "181119.942500", "181121.942500", "181123.942500", "181125.942500", "181127.942500", "181129.942500", "181131.942500", "181133.942500", "181135.942500", "181137.942500", "181139.942500", "181141.942500", "181143.942500", "181145.942500", "181147.942500", "181149.942500", "181151.942500", "181153.942500", "181155.942500", "181157.942500", "181159.942500", "181201.942500", "181203.942500", "181205.942500", "181207.942500", "181209.942500", "181211.942500", "181213.942500", "181215.942500", "181217.942500", "181219.942500", "181221.942500", "181223.942500", "181225.942500", "181227.942500", "181229.942500", "181231.942500", "181233.942500", "181235.942500", "181237.942500", "181239.942500", "181241.942500", "181243.942500", "181245.942500", "181247.942500", "181249.942500", "181251.942500", "181253.942500", "181255.942500", "181257.942500", "181259.942500", "181301.942500", "181303.942500", "181305.942500", "181307.942500", "181309.942500", "181311.942500", "181313.942500", "181315.942500", "181317.942500", "181319.942500", "181321.942500", "181323.942500", "181325.942500", "181327.942500", "181329.942500", "181331.942500", "181333.942500", "181335.942500", "181337.942500", "181339.942500", "181341.942500", "181343.942500", "181345.942500", "181347.942500", "181349.942500", "181351.942500", "181353.942500", "181355.942500", "181357.942500", "181359.942500", "181401.942500", "181403.942500", "181405.942500", "181407.942500", "181409.942500", "181411.942500", "181413.942500", "181415.942500", "181417.942500", "181419.942500", "181421.942500", "181423.942500", "181425.942500", "181427.942500", "181429.942500", "181431.942500", "181433.942500", "181435.942500", "181437.942500", "181439.942500", "181441.942500", "181443.942500", "181445.942500", "181447.942500", "181449.942500", "181451.942500", "181453.942500", "181455.942500", "181457.942500", "181459.942500", "181501.942500", "181503.942500", "181505.942500", "181507.942500", "181509.942500", "181511.942500", "181513.942500", "181515.942500", "181517.942500", "181519.942500", "181521.942500", "181523.942500", "181525.942500", "181527.942500", "181529.942500", "181531.942500", "181533.942500", "181535.942500", "181537.942500", "181539.942500", "181541.942500", "181543.942500", "181545.942500", "181547.942500", "181549.942500", "181551.942500", "181553.942500", "181555.942500", "181557.942500", "181559.942500", "181601.942500", "181603.942500", "181605.942500", "181607.942500", "181609.942500", "181611.942500", "181613.942500", "181615.942500", "181617.942500", "181619.942500", "181621.942500", "181623.942500", "181625.942500", "181627.942500", "181629.942500", "181631.942500", "181633.942500", "181635.942500", "181637.942500", "181639.942500", "181641.942500", "181643.942500", "181645.942500", "181647.942500", "181649.942500", "181651.942500", "181653.942500", "181655.942500", "181657.942500", "181659.942500", "181701.942500", "181703.942500", "181705.942500", "181707.942500", "181709.942500", "181711.942500", "181713.942500", "181715.942500", "181717.942500", "181719.942500", "181721.942500", "181723.942500", "181725.942500", "181727.942500", "181729.942500", "181731.942500", "181733.942500", "181735.942500", "181737.942500", "181739.942500", "181741.942500", "181743.942500", "181745.942500", "181747.942500", "181749.942500", "181751.942500", "181753.942500", "181755.942500"],
      "ContentTime": ["180850.566000", "180852.561000", "180854.561000", "180856.561000", "180858.562000", "180900.561000", "180902.561000", "180904.561000", "180906.561000", "180908.561000", "180910.561000", "180912.561000", "180914.561000", "180916.562000", "180918.561000", "180920.561000", "180922.561000", "180924.561000", "180926.576000", "180928.561000", "180930.561000", "180932.561000", "180934.562000", "180936.561000", "180938.561000", "180940.561000", "180942.561000", "180944.561000", "180946.561000", "180948.561000", "180950.562000", "180952.561000", "180954.561000", "180956.561000", "180958.561000", "181000.561000", "181002.561000", "181004.561000", "181006.561000", "181008.562000", "181010.561000", "181012.561000", "181014.561000", "181016.561000", "181018.561000", "181020.561000", "181022.561000", "181024.561000", "181026.562000", "181028.561000", "181030.561000", "181032.561000", "181034.561000", "181036.561000", "181038.561000", "181040.561000", "181042.561000", "181044.562000", "181046.561000", "181048.561000", "181050.561000", "181052.561000", "181054.561000", "181056.561000", "181058.561000", "181100.562000", "181102.561000", "181104.561000", "181106.561000", "181108.561000", "181110.561000", "181112.561000", "181114.561000", "181116.561000", "181118.562000", "181120.561000", "181122.561000", "181124.561000", "181126.561000", "181128.561000", "181130.561000", "181132.561000", "181134.561000", "181136.562000", "181138.561000", "181140.561000", "181142.561000", "181144.561000", "181146.561000", "181148.561000", "181150.561000", "181152.561000", "181154.562000", "181156.561000", "181158.561000", "181200.561000", "181202.561000", "181204.561000", "181206.561000", "181208.561000", "181210.562000", "181212.561000", "181214.561000", "181216.561000", "181218.561000", "181220.561000", "181222.561000", "181224.561000", "181226.561000", "181228.562000", "181230.561000", "181232.561000", "181234.561000", "181236.561000", "181238.561000", "181240.561000", "181242.561000", "181244.561000", "181246.562000", "181248.561000", "181250.561000", "181252.561000", "181254.561000", "181256.561000", "181258.561000", "181300.561000", "181302.561000", "181304.562000", "181306.561000", "181308.561000", "181310.561000", "181312.561000", "181314.561000", "181316.561000", "181318.561000", "181320.562000", "181322.561000", "181324.561000", "181326.561000", "181328.561000", "181330.561000", "181332.561000", "181334.561000", "181336.561000", "181338.562000", "181340.561000", "181342.561000", "181344.561000", "181346.561000", "181348.561000", "181350.561000", "181352.561000", "181354.561000", "181356.562000", "181358.561000", "181400.561000", "181402.561000", "181404.561000", "181406.561000", "181408.561000", "181410.561000", "181412.562000", "181414.562000", "181416.561000", "181418.561000", "181420.561000", "181422.561000", "181424.561000", "181426.561000", "181428.561000", "181430.562000", "181432.561000", "181434.561000", "181436.561000", "181438.561000", "181440.561000", "181442.561000", "181444.561000", "181446.561000", "181448.562000", "181450.561000", "181452.561000", "181454.561000", "181456.561000", "181458.561000", "181500.561000", "181502.561000", "181504.561000", "181506.562000", "181508.561000", "181510.561000", "181512.561000", "181514.561000", "181516.561000", "181518.561000", "181520.561000", "181522.562000", "181524.562000", "181526.561000", "181528.561000", "181530.561000", "181532.561000", "181534.561000", "181536.561000", "181538.561000", "181540.562000", "181542.561000", "181544.561000", "181546.561000", "181548.561000", "181550.561000", "181552.561000", "181554.561000", "181556.561000", "181558.562000", "181600.561000", "181602.561000", "181604.561000", "181606.561000", "181608.561000", "181610.561000", "181612.561000", "181614.561000", "181616.562000", "181618.561000", "181620.561000", "181622.561000", "181624.561000", "181626.561000", "181628.561000", "181630.561000", "181632.562000", "181634.562000", "181636.561000", "181638.561000", "181640.561000", "181642.561000", "181644.561000", "181646.561000", "181648.561000", "181650.562000", "181652.561000", "181654.561000", "181656.561000", "181658.561000", "181700.561000", "181702.561000", "181704.561000", "181706.561000", "181708.562000", "181710.561000", "181712.561000", "181714.561000", "181716.561000", "181718.561000", "181720.561000", "181722.561000", "181724.561000", "181726.562000", "181728.561000", "181730.561000", "181732.561000", "181734.561000", "181736.561000", "181738.561000", "181740.561000", "181742.562000", "181744.561000", "181746.561000", "181748.561000", "181750.561000", "181752.561000", "181754.561000", "181756.561000", "181758.304000"],
      "InstanceCreationTime": ["180850.566000", "180852.561000", "180854.561000", "180856.561000", "180858.562000", "180900.561000", "180902.561000", "180904.561000", "180906.561000", "180908.561000", "180910.561000", "180912.561000", "180914.561000", "180916.562000", "180918.561000", "180920.561000", "180922.561000", "180924.561000", "180926.576000", "180928.561000", "180930.561000", "180932.561000", "180934.562000", "180936.561000", "180938.561000", "180940.561000", "180942.561000", "180944.561000", "180946.561000", "180948.561000", "180950.562000", "180952.561000", "180954.561000", "180956.561000", "180958.561000", "181000.561000", "181002.561000", "181004.561000", "181006.561000", "181008.562000", "181010.561000", "181012.561000", "181014.561000", "181016.561000", "181018.561000", "181020.561000", "181022.561000", "181024.561000", "181026.562000", "181028.561000", "181030.561000", "181032.561000", "181034.561000", "181036.561000", "181038.561000", "181040.561000", "181042.561000", "181044.562000", "181046.561000", "181048.561000", "181050.561000", "181052.561000", "181054.561000", "181056.561000", "181058.561000", "181100.562000", "181102.561000", "181104.561000", "181106.561000", "181108.561000", "181110.561000", "181112.561000", "181114.561000", "181116.561000", "181118.562000", "181120.561000", "181122.561000", "181124.561000", "181126.561000", "181128.561000", "181130.561000", "181132.561000", "181134.561000", "181136.562000", "181138.561000", "181140.561000", "181142.561000", "181144.561000", "181146.561000", "181148.561000", "181150.561000", "181152.561000", "181154.562000", "181156.561000", "181158.561000", "181200.561000", "181202.561000", "181204.561000", "181206.561000", "181208.561000", "181210.562000", "181212.561000", "181214.561000", "181216.561000", "181218.561000", "181220.561000", "181222.561000", "181224.561000", "181226.561000", "181228.562000", "181230.561000", "181232.561000", "181234.561000", "181236.561000", "181238.561000", "181240.561000", "181242.561000", "181244.561000", "181246.562000", "181248.561000", "181250.561000", "181252.561000", "181254.561000", "181256.561000", "181258.561000", "181300.561000", "181302.561000", "181304.562000", "181306.561000", "181308.561000", "181310.561000", "181312.561000", "181314.561000", "181316.561000", "181318.561000", "181320.562000", "181322.561000", "181324.561000", "181326.561000", "181328.561000", "181330.561000", "181332.561000", "181334.561000", "181336.561000", "181338.562000", "181340.561000", "181342.561000", "181344.561000", "181346.561000", "181348.561000", "181350.561000", "181352.561000", "181354.561000", "181356.562000", "181358.561000", "181400.561000", "181402.561000", "181404.561000", "181406.561000", "181408.561000", "181410.561000", "181412.562000", "181414.562000", "181416.561000", "181418.561000", "181420.561000", "181422.561000", "181424.561000", "181426.561000", "181428.561000", "181430.562000", "181432.561000", "181434.561000", "181436.561000", "181438.561000", "181440.561000", "181442.561000", "181444.561000", "181446.561000", "181448.562000", "181450.561000", "181452.561000", "181454.561000", "181456.561000", "181458.561000", "181500.561000", "181502.561000", "181504.561000", "181506.562000", "181508.561000", "181510.561000", "181512.561000", "181514.561000", "181516.561000", "181518.561000", "181520.561000", "181522.562000", "181524.562000", "181526.561000", "181528.561000", "181530.561000", "181532.561000", "181534.561000", "181536.561000", "181538.561000", "181540.562000", "181542.561000", "181544.561000", "181546.561000", "181548.561000", "181550.561000", "181552.561000", "181554.561000", "181556.561000", "181558.562000", "181600.561000", "181602.561000", "181604.561000", "181606.561000", "181608.561000", "181610.561000", "181612.561000", "181614.561000", "181616.562000", "181618.561000", "181620.561000", "181622.561000", "181624.561000", "181626.561000", "181628.561000", "181630.561000", "181632.562000", "181634.562000", "181636.561000", "181638.561000", "181640.561000", "181642.561000", "181644.561000", "181646.561000", "181648.561000", "181650.562000", "181652.561000", "181654.561000", "181656.561000", "181658.561000", "181700.561000", "181702.561000", "181704.561000", "181706.561000", "181708.562000", "181710.561000", "181712.561000", "181714.561000", "181716.561000", "181718.561000", "181720.561000", "181722.561000", "181724.561000", "181726.562000", "181728.561000", "181730.561000", "181732.561000", "181734.561000", "181736.561000", "181738.561000", "181740.561000", "181742.562000", "181744.561000", "181746.561000", "181748.561000", "181750.561000", "181752.561000", "181754.561000", "181756.561000", "181758.304000"],
      "InstanceNumber": [1, 2, 3, 4, 5, 6, 7, 8, 9, 10, 11, 12, 13, 14, 15, 16, 17, 18, 19, 20, 21, 22, 23, 24, 25, 26, 27, 28, 29, 30, 31, 32, 33, 34, 35, 36, 37, 38, 39, 40, 41, 42, 43, 44, 45, 46, 47, 48, 49, 50, 51, 52, 53, 54, 55, 56, 57, 58, 59, 60, 61, 62, 63, 64, 65, 66, 67, 68, 69, 70, 71, 72, 73, 74, 75, 76, 77, 78, 79, 80, 81, 82, 83, 84, 85, 86, 87, 88, 89, 90, 91, 92, 93, 94, 95, 96, 97, 98, 99, 100, 101, 102, 103, 104, 105, 106, 107, 108, 109, 110, 111, 112, 113, 114, 115, 116, 117, 118, 119, 120, 121, 122, 123, 124, 125, 126, 127, 128, 129, 130, 131, 132, 133, 134, 135, 136, 137, 138, 139, 140, 141, 142, 143, 144, 145, 146, 147, 148, 149, 150, 151, 152, 153, 154, 155, 156, 157, 158, 159, 160, 161, 162, 163, 164, 165, 166, 167, 168, 169, 170, 171, 172, 173, 174, 175, 176, 177, 178, 179, 180, 181, 182, 183, 184, 185, 186, 187, 188, 189, 190, 191, 192, 193, 194, 195, 196, 197, 198, 199, 200, 201, 202, 203, 204, 205, 206, 207, 208, 209, 210, 211, 212, 213, 214, 215, 216, 217, 218, 219, 220, 221, 222, 223, 224, 225, 226, 227, 228, 229, 230, 231, 232, 233, 234, 235, 236, 237, 238, 239, 240, 241, 242, 243, 244, 245, 246, 247, 248, 249, 250, 251, 252, 253, 254, 255, 256, 257, 258, 259, 260, 261, 262, 263, 264, 265, 266, 267, 268, 269, 270, 271, 272, 273, 274, 275],
      "LargestImagePixelValue": [1595, 1589, 1828, 1502, 1508, 1728, 1452, 1464, 1469, 1410, 1727, 1663, 1536, 1403, 1500, 1676, 1593, 1487, 1551, 1464, 1386, 1476, 1424, 1472, 1450, 1435, 1504, 1708, 1488, 1434, 1643, 1588, 1465, 1453, 1419, 1447, 1489, 1557, 1776, 1706, 1470, 1447, 1524, 1495, 1462, 1571, 1462, 1526, 1669, 1621, 1501, 1468, 1539, 1716, 1505, 1521, 1472, 1396, 1640, 1753, 1460, 1607, 1726, 1504, 1427, 1572, 1509, 1468, 1708, 1447, 1443, 1443, 1556, 1459, 1472, 1451, 1478, 1422, 1462, 1435, 1642, 1561, 1638, 1544, 1514, 1461, 1495, 1605, 1619, 1460, 1474, 1464, 1735, 1446, 1440, 1493, 1473, 1430, 1718, 1491, 1441, 1462, 1502, 1498, 1646, 1493, 1433, 1520, 1478, 1385, 1474, 1424, 1448, 1422, 1447, 1556, 1455, 1604, 1739, 1477, 1403, 1763, 1422, 1520, 1839, 1427, 1488, 1475, 1635, 1601, 1452, 1546, 1463, 1459, 1430, 1453, 1579, 1793, 1483, 1425, 1534, 1468, 1433, 1565, 1617, 1430, 1439, 1521, 1455, 1444, 1498, 1672, 1513, 1520, 1731, 1522, 1478, 1499, 1789, 1487, 1444, 1477, 1506, 1557, 1627, 1525, 1484, 1505, 1458, 1617, 1485, 1525, 1681, 1468, 1451, 1512, 1632, 1446, 1441, 1543, 1458, 1667, 1427, 1421, 1448, 1508, 1738, 1472, 1674, 1451, 1500, 1545, 1746, 1484, 1416, 1513, 1447, 1456, 1592, 1513, 1399, 1462, 1477, 1472, 1487, 1467, 1444, 1443, 1402, 1615, 1513, 1410, 1460, 1792, 1461, 1413, 1445, 1418, 1423, 1410, 1440, 1639, 1785, 1485, 1396, 1450, 1466, 1567, 1566, 1472, 1454, 1454, 1444, 1540, 1566, 1513, 1420, 1389, 1441, 1444, 1465, 1449, 1599, 1475, 1439, 1561, 1493, 1447, 1605, 1486, 1575, 1600, 1431, 1441, 1527, 1442, 1457, 1574, 1500, 1568, 1512, 1491, 1491, 1513, 1391, 1394, 1399, 1418, 1577, 1528, 1396, 1391, 1505, 1716, 1405],
      "WindowCenter": [661.0, 659.0, 660.0, 658.0, 658.0, 659.0, 657.0, 658.0, 658.0, 657.0, 658.0, 658.0, 658.0, 659.0, 660.0, 659.0, 658.0, 657.0, 658.0, 657.0, 657.0, 658.0, 659.0, 659.0, 660.0, 660.0, 659.0, 660.0, 659.0, 658.0, 659.0, 659.0, 658.0, 659.0, 659.0, 659.0, 659.0, 659.0, 660.0, 659.0, 658.0, 658.0, 658.0, 658.0, 658.0, 659.0, 659.0, 659.0, 659.0, 658.0, 659.0, 659.0, 659.0, 660.0, 658.0, 658.0, 658.0, 658.0, 660.0, 659.0, 658.0, 658.0, 658.0, 657.0, 657.0, 658.0, 658.0, 658.0, 659.0, 657.0, 657.0, 658.0, 658.0, 658.0, 657.0, 657.0, 658.0, 658.0, 658.0, 659.0, 659.0, 658.0, 658.0, 657.0, 658.0, 658.0, 658.0, 658.0, 658.0, 657.0, 658.0, 657.0, 658.0, 656.0, 656.0, 657.0, 658.0, 657.0, 658.0, 656.0, 657.0, 658.0, 658.0, 657.0, 657.0, 657.0, 657.0, 657.0, 657.0, 657.0, 657.0, 657.0, 657.0, 658.0, 658.0, 658.0, 657.0, 658.0, 658.0, 657.0, 657.0, 659.0, 657.0, 658.0, 658.0, 657.0, 658.0, 658.0, 658.0, 657.0, 656.0, 656.0, 656.0, 657.0, 657.0, 656.0, 657.0, 657.0, 656.0, 657.0, 657.0, 657.0, 657.0, 657.0, 657.0, 657.0, 657.0, 658.0, 657.0, 657.0, 658.0, 658.0, 656.0, 657.0, 657.0, 657.0, 656.0, 657.0, 657.0, 657.0, 657.0, 657.0, 657.0, 657.0, 657.0, 657.0, 657.0, 658.0, 657.0, 657.0, 657.0, 657.0, 658.0, 657.0, 657.0, 657.0, 657.0, 657.0, 657.0, 657.0, 657.0, 658.0, 657.0, 657.0, 657.0, 657.0, 658.0, 656.0, 657.0, 657.0, 657.0, 657.0, 658.0, 657.0, 657.0, 658.0, 657.0, 656.0, 657.0, 657.0, 657.0, 657.0, 656.0, 657.0, 657.0, 657.0, 657.0, 657.0, 657.0, 658.0, 658.0, 657.0, 657.0, 658.0, 657.0, 656.0, 657.0, 657.0, 657.0, 657.0, 657.0, 658.0, 658.0, 657.0, 658.0, 658.0, 657.0, 657.0, 657.0, 657.0, 657.0, 657.0, 658.0, 658.0, 658.0, 657.0, 657.0, 657.0, 658.0, 658.0, 657.0, 657.0, 658.0, 658.0, 657.0, 658.0, 658.0, 658.0, 658.0, 657.0, 658.0, 658.0, 657.0, 658.0, 658.0, 657.0, 658.0, 658.0, 657.0, 658.0, 658.0, 658.0, 657.0, 657.0, 656.0, 657.0, 658.0, 658.0, 658.0, 657.0, 656.0, 657.0, 658.0, 658.0, 657.0],
      "WindowWidth": [1408.0, 1404.0, 1405.0, 1401.0, 1401.0, 1402.0, 1399.0, 1401.0, 1401.0, 1398.0, 1400.0, 1400.0, 1400.0, 1405.0, 1405.0, 1403.0, 1400.0, 1399.0, 1400.0, 1400.0, 1400.0, 1402.0, 1403.0, 1405.0, 1407.0, 1405.0, 1405.0, 1407.0, 1403.0, 1402.0, 1403.0, 1402.0, 1402.0, 1403.0, 1404.0, 1405.0, 1405.0, 1404.0, 1405.0, 1403.0, 1401.0, 1401.0, 1402.0, 1402.0, 1401.0, 1402.0, 1402.0, 1403.0, 1404.0, 1402.0, 1403.0, 1404.0, 1404.0, 1405.0, 1401.0, 1401.0, 1401.0, 1402.0, 1405.0, 1404.0, 1400.0, 1400.0, 1400.0, 1399.0, 1400.0, 1401.0, 1400.0, 1401.0, 1402.0, 1398.0, 1399.0, 1400.0, 1401.0, 1400.0, 1400.0, 1400.0, 1400.0, 1401.0, 1402.0, 1403.0, 1404.0, 1402.0, 1401.0, 1400.0, 1400.0, 1400.0, 1401.0, 1402.0, 1401.0, 1399.0, 1401.0, 1399.0, 1400.0, 1396.0, 1397.0, 1399.0, 1400.0, 1400.0, 1400.0, 1397.0, 1398.0, 1400.0, 1400.0, 1399.0, 1399.0, 1399.0, 1399.0, 1399.0, 1398.0, 1398.0, 1399.0, 1400.0, 1399.0, 1401.0, 1402.0, 1402.0, 1400.0, 1400.0, 1400.0, 1399.0, 1400.0, 1404.0, 1399.0, 1400.0, 1401.0, 1400.0, 1401.0, 1401.0, 1400.0, 1399.0, 1397.0, 1396.0, 1397.0, 1398.0, 1398.0, 1397.0, 1398.0, 1399.0, 1397.0, 1398.0, 1399.0, 1398.0, 1399.0, 1399.0, 1399.0, 1399.0, 1400.0, 1400.0, 1398.0, 1399.0, 1400.0, 1400.0, 1397.0, 1397.0, 1399.0, 1398.0, 1397.0, 1398.0, 1399.0, 1397.0, 1399.0, 1399.0, 1398.0, 1398.0, 1398.0, 1398.0, 1399.0, 1401.0, 1399.0, 1399.0, 1398.0, 1399.0, 1400.0, 1398.0, 1399.0, 1398.0, 1398.0, 1398.0, 1399.0, 1400.0, 1398.0, 1400.0, 1398.0, 1398.0, 1398.0, 1399.0, 1400.0, 1397.0, 1399.0, 1398.0, 1398.0, 1398.0, 1399.0, 1397.0, 1398.0, 1402.0, 1398.0, 1397.0, 1398.0, 1397.0, 1398.0, 1398.0, 1397.0, 1398.0, 1397.0, 1397.0, 1398.0, 1398.0, 1399.0, 1402.0, 1400.0, 1399.0, 1399.0, 1400.0, 1398.0, 1397.0, 1398.0, 1398.0, 1399.0, 1398.0, 1398.0, 1400.0, 1400.0, 1399.0, 1400.0, 1400.0, 1398.0, 1399.0, 1399.0, 1398.0, 1399.0, 1399.0, 1400.0, 1401.0, 1400.0, 1399.0, 1399.0, 1399.0, 1400.0, 1400.0, 1399.0, 1398.0, 1400.0, 1400.0, 1399.0, 1401.0, 1401.0, 1401.0, 1402.0, 1399.0, 1401.0, 1400.0, 1399.0, 1400.0, 1400.0, 1399.0, 1400.0, 1400.0, 1399.0, 1401.0, 1402.0, 1400.0, 1399.0, 1398.0, 1396.0, 1399.0, 1401.0, 1400.0, 1400.0, 1398.0, 1396.0, 1399.0, 1401.0, 1401.0, 1398.0]
    },
    "slices": {}
  }
}