{
  "AcquisitionMatrixPE": 64,
  "AcquisitionNumber": 1,
  "AcquisitionTime": "18:47:1.922500",
  "BandwidthPerPixelPhaseEncode": 31.888,
  "BaseResolution": 64,
  "BodyPartExamined": "HEAD",
  "CoilCombinationMethod": "Sum of Squares",
  "ConsistencyInfo": "N4_VE11C_LATEST_20160120",
  "ConversionSoftware": "dcm2niix",
  "ConversionSoftwareVersion": "v1.0.20211006",
  "DerivedVendorReportedEchoSpacing": 0.000489996,
  "DeviceSerialNumber": "167048",
  "EchoTime": 0.03,
  "EchoTrainLength": 64,
  "EffectiveEchoSpacing": 0.000489996,
  "FlipAngle": 90,
  "ImageOrientationPatientDICOM": [0.998984, -0.0187943, 0.0409537, 0.0226702, 0.995091, -0.0963319],
  "ImageType": [
    "ORIGINAL",
    "PRIMARY",
    "M",
    "ND",
    "NORM",
    "MOSAIC"
],
  "ImagingFrequency": 123.261,
  "InPlanePhaseEncodingDirectionDICOM": "COL",
  "InstitutionAddress": "Azinhaga Santa Comba StreetNo,Coimbra,District,PT,3000",
  "InstitutionName": "ICNAS",
  "MRAcquisitionType": "2D",
  "MagneticFieldStrength": 3,
  "Manufacturer": "Siemens",
  "ManufacturersModelName": "Prisma_fit",
  "MatrixCoilMode": "SENSE",
  "Modality": "MR",
  "PartialFourier": 1,
  "PatientPosition": "HFS",
  "PercentPhaseFOV": 100,
  "PercentSampling": 100,
  "PhaseEncodingDirection": "j-",
  "PhaseEncodingSteps": 64,
  "PhaseResolution": 1,
  "PixelBandwidth": 2365,
  "ProcedureStepDescription": "RM_FUNCIONAL",
  "ProtocolName": "rtfmri_neurofeedback_MTRun4",
  "PulseSequenceDetails": "%SiemensSeq%\\ep2d_bold",
  "ReceiveCoilActiveElements": "HE1-4",
  "ReceiveCoilName": "HeadNeck_20",
  "ReconMatrixPE": 64,
  "RepetitionTime": 2,
  "SAR": 0.149885,
  "ScanOptions": "FS",
  "ScanningSequence": "EP",
  "SequenceName": "*epfid2d1_64",
  "SequenceVariant": "SK",
  "SeriesDescription": "rtfmri_neurofeedback_MTRun4",
  "SeriesNumber": 7,
  "ShimSetting": [10184, 2097, 8360, 225, 42, -138, 169, -54],
  "SliceThickness": 3,
  "SliceTiming": [0, 1.02, 0.06, 1.08, 0.12, 1.14, 0.18, 1.1975, 0.24, 1.2575, 0.3, 1.3175, 0.36, 1.3775, 0.42, 1.4375, 0.48, 1.4975, 0.54, 1.5575, 0.6, 1.6175, 0.66, 1.6775, 0.72, 1.7375, 0.78, 1.7975, 0.84, 1.8575, 0.9, 1.9175, 0.96],
  "SoftwareVersions": "syngo MR E11",
  "SpacingBetweenSlices": 3,
  "StationName": "MRC35377",
  "TaskName": "nf",
  "TotalReadoutTime": 0.0308698,
  "TxRefAmp": 309.684,
  "dcmmeta_affine": [
    [-3.9959359169006348, 0.0906808003783226, 0.11682650446891785, 124.96842193603516],
    [0.07517720013856888, 3.9803640842437744, -0.29148736596107483, -102.29181671142578],
    [0.16381479799747467, 0.38532760739326477, 2.983518123626709, -63.775028228759766],
    [0.0, 0.0, 0.0, 1.0]
],
  "dcmmeta_reorient_transform": [
    [0.0, -1.0, 0.0, 63.0],
    [1.0, 0.0, 0.0, 0.0],
    [0.0, 0.0, 1.0, 0.0],
    [0.0, 0.0, 0.0, 1.0]
],
  "dcmmeta_shape": [64, 64, 33, 275],
  "dcmmeta_slice_dim": 2,
  "dcmmeta_version": 0.6,
  "global": {
    "const": {
      "AccessionNumber": "0",
      "AcquisitionMatrix": [64, 0, 0, 64],
      "AngioFlag": "N",
      "BitsAllocated": 16,
      "BitsStored": 12,
      "BodyPartExamined": "HEAD",
      "Columns": 384,
      "EchoNumbers": 1,
      "EchoTime": 30.0,
      "EchoTrainLength": 64,
      "FlipAngle": 90.0,
      "HighBit": 11,
      "ImageOrientationPatient": [0.998984, -0.0187943, 0.0409537, 0.0226702, 0.995091, -0.0963319],
      "ImagePositionPatient": [-784.54, -773.301, -4.05734],
      "ImageType": [
        "ORIGINAL",
        "PRIMARY",
        "M",
        "ND",
        "NORM",
        "MOSAIC"
],
      "ImagedNucleus": "1H",
      "ImagingFrequency": 123.261,
      "InPlanePhaseEncodingDirection": "COL",
      "MRAcquisitionType": "2D",
      "MagneticFieldStrength": 3.0,
      "Manufacturer": "SIEMENS",
      "ManufacturerModelName": "Prisma_fit",
      "Modality": "MR",
      "NumberOfAverages": 1.0,
      "NumberOfFrames": 1,
      "NumberOfPhaseEncodingSteps": 64,
      "PercentPhaseFieldOfView": 100.0,
      "PercentSampling": 100.0,
      "PerformedProcedureStepStartTime": "173837.747000",
      "PhotometricInterpretation": "MONOCHROME2",
      "PixelBandwidth": 2365.0,
      "PixelRepresentation": 0,
      "PixelSpacing": [4.0, 4.0],
      "ProtocolName": "rtfmri_neurofeedback_MTRun4",
      "RepetitionTime": 2000.0,
      "RequestAttributesSequence": [
        {
          "RequestedProcedureID": "1265",
          "ScheduledProcedureStepDescription": "RM_FUNCIONAL",
          "ScheduledProcedureStepID": "1"}
],
      "Rows": 384,
      "SAR": 0.149885,
      "SamplesPerPixel": 1,
      "ScanOptions": "FS",
      "ScanningSequence": "EP",
      "SequenceName": "*epfid2d1_64",
      "SequenceVariant": "SK",
      "SeriesDescription": "rtfmri_neurofeedback_MTRun4",
      "SeriesNumber": 7,
      "SeriesTime": "184704.704000",
      "SliceLocation": -48.6191,
      "SliceThickness": 3.0,
      "SmallestImagePixelValue": 0,
      "SoftwareVersions": "syngo MR E11",
      "SpacingBetweenSlices": 3.0,
      "SpecificCharacterSet": "ISO_IR 100",
      "StudyID": "1265",
      "StudyTime": "173836.084000",
      "TransmitCoilName": "Body",
      "VariableFlipAngleFlag": "N",
      "WindowCenterWidthExplanation": "Algo1",
      "dBdt": 0.0},
    "slices": {}
  },
  "time": {
    "samples": {
      "AcquisitionNumber": [1, 2, 3, 4, 5, 6, 7, 8, 9, 10, 11, 12, 13, 14, 15, 16, 17, 18, 19, 20, 21, 22, 23, 24, 25, 26, 27, 28, 29, 30, 31, 32, 33, 34, 35, 36, 37, 38, 39, 40, 41, 42, 43, 44, 45, 46, 47, 48, 49, 50, 51, 52, 53, 54, 55, 56, 57, 58, 59, 60, 61, 62, 63, 64, 65, 66, 67, 68, 69, 70, 71, 72, 73, 74, 75, 76, 77, 78, 79, 80, 81, 82, 83, 84, 85, 86, 87, 88, 89, 90, 91, 92, 93, 94, 95, 96, 97, 98, 99, 100, 101, 102, 103, 104, 105, 106, 107, 108, 109, 110, 111, 112, 113, 114, 115, 116, 117, 118, 119, 120, 121, 122, 123, 124, 125, 126, 127, 128, 129, 130, 131, 132, 133, 134, 135, 136, 137, 138, 139, 140, 141, 142, 143, 144, 145, 146, 147, 148, 149, 150, 151, 152, 153, 154, 155, 156, 157, 158, 159, 160, 161, 162, 163, 164, 165, 166, 167, 168, 169, 170, 171, 172, 173, 174, 175, 176, 177, 178, 179, 180, 181, 182, 183, 184, 185, 186, 187, 188, 189, 190, 191, 192, 193, 194, 195, 196, 197, 198, 199, 200, 201, 202, 203, 204, 205, 206, 207, 208, 209, 210, 211, 212, 213, 214, 215, 216, 217, 218, 219, 220, 221, 222, 223, 224, 225, 226, 227, 228, 229, 230, 231, 232, 233, 234, 235, 236, 237, 238, 239, 240, 241, 242, 243, 244, 245, 246, 247, 248, 249, 250, 251, 252, 253, 254, 255, 256, 257, 258, 259, 260, 261, 262, 263, 264, 265, 266, 267, 268, 269, 270, 271, 272, 273, 274, 275],
      "AcquisitionTime": ["184701.922500", "184703.922500", "184705.922500", "184707.922500", "184709.922500", "184711.922500", "184713.922500", "184715.922500", "184717.922500", "184719.922500", "184721.922500", "184723.922500", "184725.922500", "184727.922500", "184729.922500", "184731.922500", "184733.922500", "184735.922500", "184737.922500", "184739.922500", "184741.922500", "184743.922500", "184745.922500", "184747.922500", "184749.922500", "184751.922500", "184753.922500", "184755.922500", "184757.922500", "184759.922500", "184801.922500", "184803.922500", "184805.922500", "184807.922500", "184809.922500", "184811.922500", "184813.922500", "184815.922500", "184817.922500", "184819.922500", "184821.922500", "184823.922500", "184825.922500", "184827.922500", "184829.922500", "184831.922500", "184833.922500", "184835.922500", "184837.922500", "184839.922500", "184841.922500", "184843.922500", "184845.922500", "184847.922500", "184849.922500", "184851.922500", "184853.922500", "184855.922500", "184857.922500", "184859.922500", "184901.922500", "184903.922500", "184905.922500", "184907.922500", "184909.922500", "184911.922500", "184913.922500", "184915.922500", "184917.922500", "184919.922500", "184921.922500", "184923.922500", "184925.922500", "184927.922500", "184929.922500", "184931.922500", "184933.922500", "184935.922500", "184937.922500", "184939.922500", "184941.922500", "184943.922500", "184945.922500", "184947.922500", "184949.922500", "184951.922500", "184953.922500", "184955.922500", "184957.922500", "184959.922500", "185001.922500", "185003.922500", "185005.922500", "185007.922500", "185009.922500", "185011.922500", "185013.922500", "185015.922500", "185017.922500", "185019.922500", "185021.922500", "185023.922500", "185025.922500", "185027.922500", "185029.922500", "185031.922500", "185033.922500", "185035.922500", "185037.922500", "185039.922500", "185041.922500", "185043.922500", "185045.922500", "185047.922500", "185049.922500", "185051.922500", "185053.922500", "185055.922500", "185057.922500", "185059.922500", "185101.922500", "185103.922500", "185105.922500", "185107.922500", "185109.922500", "185111.922500", "185113.922500", "185115.922500", "185117.922500", "185119.922500", "185121.922500", "185123.922500", "185125.922500", "185127.922500", "185129.922500", "185131.922500", "185133.922500", "185135.922500", "185137.922500", "185139.922500", "185141.922500", "185143.922500", "185145.922500", "185147.922500", "185149.922500", "185151.922500", "185153.922500", "185155.922500", "185157.922500", "185159.922500", "185201.922500", "185203.922500", "185205.922500", "185207.922500", "185209.922500", "185211.922500", "185213.922500", "185215.922500", "185217.922500", "185219.922500", "185221.922500", "185223.922500", "185225.922500", "185227.922500", "185229.922500", "185231.922500", "185233.922500", "185235.922500", "185237.922500", "185239.922500", "185241.922500", "185243.922500", "185245.922500", "185247.922500", "185249.922500", "185251.922500", "185253.922500", "185255.922500", "185257.922500", "185259.922500", "185301.922500", "185303.922500", "185305.922500", "185307.922500", "185309.922500", "185311.922500", "185313.922500", "185315.922500", "185317.922500", "185319.922500", "185321.922500", "185323.922500", "185325.922500", "185327.922500", "185329.922500", "185331.922500", "185333.922500", "185335.922500", "185337.922500", "185339.922500", "185341.922500", "185343.922500", "185345.922500", "185347.922500", "185349.922500", "185351.922500", "185353.922500", "185355.922500", "185357.922500", "185359.922500", "185401.922500", "185403.922500", "185405.922500", "185407.922500", "185409.922500", "185411.922500", "185413.922500", "185415.922500", "185417.922500", "185419.922500", "185421.922500", "185423.922500", "185425.922500", "185427.922500", "185429.922500", "185431.922500", "185433.922500", "185435.922500", "185437.922500", "185439.922500", "185441.922500", "185443.922500", "185445.922500", "185447.922500", "185449.922500", "185451.922500", "185453.922500", "185455.922500", "185457.922500", "185459.922500", "185501.922500", "185503.922500", "185505.922500", "185507.922500", "185509.922500", "185511.922500", "185513.922500", "185515.922500", "185517.922500", "185519.922500", "185521.922500", "185523.922500", "185525.922500", "185527.922500", "185529.922500", "185531.922500", "185533.922500", "185535.922500", "185537.922500", "185539.922500", "185541.922500", "185543.922500", "185545.922500", "185547.922500", "185549.922500", "185551.922500", "185553.922500", "185555.922500", "185557.922500", "185559.922500", "185601.922500", "185603.922500", "185605.922500", "185607.922500", "185609.922500"],
      "ContentTime": ["184704.707000", "184706.702000", "184708.703000", "184710.703000", "184712.703000", "184714.702000", "184716.702000", "184718.702000", "184720.702000", "184722.702000", "184724.702000", "184726.703000", "184728.703000", "184730.703000", "184732.702000", "184734.702000", "184736.702000", "184738.702000", "184740.702000", "184742.702000", "184744.703000", "184746.703000", "184748.703000", "184750.702000", "184752.702000", "184754.702000", "184756.702000", "184758.702000", "184800.703000", "184802.703000", "184804.704000", "184806.703000", "184808.703000", "184810.702000", "184812.702000", "184814.702000", "184816.702000", "184818.703000", "184820.703000", "184822.703000", "184824.702000", "184826.702000", "184828.702000", "184830.702000", "184832.702000", "184834.702000", "184836.703000", "184838.703000", "184840.703000", "184842.702000", "184844.702000", "184846.702000", "184848.702000", "184850.702000", "184852.702000", "184854.703000", "184856.703000", "184858.703000", "184900.702000", "184902.702000", "184904.703000", "184906.702000", "184908.702000", "184910.703000", "184912.703000", "184914.703000", "184916.702000", "184918.702000", "184920.702000", "184922.702000", "184924.702000", "184926.702000", "184928.703000", "184930.703000", "184932.703000", "184934.702000", "184936.702000", "184938.702000", "184940.702000", "184942.702000", "184944.702000", "184946.703000", "184948.703000", "184950.703000", "184952.702000", "184954.702000", "184956.702000", "184958.702000", "185000.702000", "185002.702000", "185004.703000", "185006.703000", "185008.703000", "185010.702000", "185012.702000", "185014.702000", "185016.702000", "185018.702000", "185020.703000", "185022.703000", "185024.703000", "185026.702000", "185028.702000", "185030.702000", "185032.702000", "185034.702000", "185036.702000", "185038.703000", "185040.703000", "185042.703000", "185044.702000", "185046.702000", "185048.702000", "185050.702000", "185052.702000", "185054.702000", "185056.703000", "185058.703000", "185100.703000", "185102.702000", "185104.702000", "185106.702000", "185108.702000", "185110.702000", "185112.702000", "185114.703000", "185116.703000", "185118.703000", "185120.702000", "185122.702000", "185124.702000", "185126.702000", "185128.702000", "185130.703000", "185132.703000", "185134.703000", "185136.702000", "185138.702000", "185140.702000", "185142.702000", "185144.702000", "185146.702000", "185148.703000", "185150.703000", "185152.703000", "185154.702000", "185156.702000", "185158.702000", "185200.702000", "185202.702000", "185204.702000", "185206.703000", "185208.703000", "185210.703000", "185212.702000", "185214.702000", "185216.702000", "185218.702000", "185220.702000", "185222.702000", "185224.703000", "185226.703000", "185228.703000", "185230.702000", "185232.702000", "185234.702000", "185236.702000", "185238.702000", "185240.703000", "185242.703000", "185244.703000", "185246.702000", "185248.702000", "185250.702000", "185252.702000", "185254.702000", "185256.702000", "185258.703000", "185300.703000", "185302.703000", "185304.702000", "185306.702000", "185308.702000", "185310.702000", "185312.702000", "185314.702000", "185316.703000", "185318.703000", "185320.703000", "185322.702000", "185324.702000", "185326.702000", "185328.702000", "185330.702000", "185332.702000", "185334.703000", "185336.703000", "185338.703000", "185340.702000", "185342.702000", "185344.702000", "185346.702000", "185348.702000", "185350.703000", "185352.703000", "185354.703000", "185356.702000", "185358.702000", "185400.702000", "185402.702000", "185404.702000", "185406.702000", "185408.703000", "185410.703000", "185412.703000", "185414.702000", "185416.702000", "185418.702000", "185420.702000", "185422.702000", "185424.702000", "185426.703000", "185428.703000", "185430.703000", "185432.702000", "185434.702000", "185436.702000", "185438.702000", "185440.702000", "185442.702000", "185444.703000", "185446.703000", "185448.703000", "185450.702000", "185452.702000", "185454.702000", "185456.702000", "185458.702000", "185500.703000", "185502.703000", "185504.703000", "185506.702000", "185508.702000", "185510.702000", "185512.702000", "185514.702000", "185516.702000", "185518.703000", "185520.703000", "185522.703000", "185524.702000", "185526.702000", "185528.702000", "185530.702000", "185532.702000", "185534.702000", "185536.703000", "185538.703000", "185540.703000", "185542.702000", "185544.702000", "185546.702000", "185548.702000", "185550.702000", "185552.703000", "185554.717000", "185556.703000", "185558.702000", "185600.702000", "185602.702000", "185604.702000", "185606.702000", "185608.702000", "185610.703000", "185612.425000"],
      "InstanceCreationTime": ["184704.707000", "184706.702000", "184708.703000", "184710.703000", "184712.703000", "184714.702000", "184716.702000", "184718.702000", "184720.702000", "184722.702000", "184724.702000", "184726.703000", "184728.703000", "184730.703000", "184732.702000", "184734.702000", "184736.702000", "184738.702000", "184740.702000", "184742.702000", "184744.703000", "184746.703000", "184748.703000", "184750.702000", "184752.702000", "184754.702000", "184756.702000", "184758.702000", "184800.703000", "184802.703000", "184804.704000", "184806.703000", "184808.703000", "184810.702000", "184812.702000", "184814.702000", "184816.702000", "184818.703000", "184820.703000", "184822.703000", "184824.702000", "184826.702000", "184828.702000", "184830.702000", "184832.702000", "184834.702000", "184836.703000", "184838.703000", "184840.703000", "184842.702000", "184844.702000", "184846.702000", "184848.702000", "184850.702000", "184852.702000", "184854.703000", "184856.703000", "184858.703000", "184900.702000", "184902.702000", "184904.703000", "184906.702000", "184908.702000", "184910.703000", "184912.703000", "184914.703000", "184916.702000", "184918.702000", "184920.702000", "184922.702000", "184924.702000", "184926.702000", "184928.703000", "184930.703000", "184932.703000", "184934.702000", "184936.702000", "184938.702000", "184940.702000", "184942.702000", "184944.702000", "184946.703000", "184948.703000", "184950.703000", "184952.702000", "184954.702000", "184956.702000", "184958.702000", "185000.702000", "185002.702000", "185004.703000", "185006.703000", "185008.703000", "185010.702000", "185012.702000", "185014.702000", "185016.702000", "185018.702000", "185020.703000", "185022.703000", "185024.703000", "185026.702000", "185028.702000", "185030.702000", "185032.702000", "185034.702000", "185036.702000", "185038.703000", "185040.703000", "185042.703000", "185044.702000", "185046.702000", "185048.702000", "185050.702000", "185052.702000", "185054.702000", "185056.703000", "185058.703000", "185100.703000", "185102.702000", "185104.702000", "185106.702000", "185108.702000", "185110.702000", "185112.702000", "185114.703000", "185116.703000", "185118.703000", "185120.702000", "185122.702000", "185124.702000", "185126.702000", "185128.702000", "185130.703000", "185132.703000", "185134.703000", "185136.702000", "185138.702000", "185140.702000", "185142.702000", "185144.702000", "185146.702000", "185148.703000", "185150.703000", "185152.703000", "185154.702000", "185156.702000", "185158.702000", "185200.702000", "185202.702000", "185204.702000", "185206.703000", "185208.703000", "185210.703000", "185212.702000", "185214.702000", "185216.702000", "185218.702000", "185220.702000", "185222.702000", "185224.703000", "185226.703000", "185228.703000", "185230.702000", "185232.702000", "185234.702000", "185236.702000", "185238.702000", "185240.703000", "185242.703000", "185244.703000", "185246.702000", "185248.702000", "185250.702000", "185252.702000", "185254.702000", "185256.702000", "185258.703000", "185300.703000", "185302.703000", "185304.702000", "185306.702000", "185308.702000", "185310.702000", "185312.702000", "185314.702000", "185316.703000", "185318.703000", "185320.703000", "185322.702000", "185324.702000", "185326.702000", "185328.702000", "185330.702000", "185332.702000", "185334.703000", "185336.703000", "185338.703000", "185340.702000", "185342.702000", "185344.702000", "185346.702000", "185348.702000", "185350.703000", "185352.703000", "185354.703000", "185356.702000", "185358.702000", "185400.702000", "185402.702000", "185404.702000", "185406.702000", "185408.703000", "185410.703000", "185412.703000", "185414.702000", "185416.702000", "185418.702000", "185420.702000", "185422.702000", "185424.702000", "185426.703000", "185428.703000", "185430.703000", "185432.702000", "185434.702000", "185436.702000", "185438.702000", "185440.702000", "185442.702000", "185444.703000", "185446.703000", "185448.703000", "185450.702000", "185452.702000", "185454.702000", "185456.702000", "185458.702000", "185500.703000", "185502.703000", "185504.703000", "185506.702000", "185508.702000", "185510.702000", "185512.702000", "185514.702000", "185516.702000", "185518.703000", "185520.703000", "185522.703000", "185524.702000", "185526.702000", "185528.702000", "185530.702000", "185532.702000", "185534.702000", "185536.703000", "185538.703000", "185540.703000", "185542.702000", "185544.702000", "185546.702000", "185548.702000", "185550.702000", "185552.703000", "185554.717000", "185556.703000", "185558.702000", "185600.702000", "185602.702000", "185604.702000", "185606.702000", "185608.702000", "185610.703000", "185612.425000"],
      "InstanceNumber": [1, 2, 3, 4, 5, 6, 7, 8, 9, 10, 11, 12, 13, 14, 15, 16, 17, 18, 19, 20, 21, 22, 23, 24, 25, 26, 27, 28, 29, 30, 31, 32, 33, 34, 35, 36, 37, 38, 39, 40, 41, 42, 43, 44, 45, 46, 47, 48, 49, 50, 51, 52, 53, 54, 55, 56, 57, 58, 59, 60, 61, 62, 63, 64, 65, 66, 67, 68, 69, 70, 71, 72, 73, 74, 75, 76, 77, 78, 79, 80, 81, 82, 83, 84, 85, 86, 87, 88, 89, 90, 91, 92, 93, 94, 95, 96, 97, 98, 99, 100, 101, 102, 103, 104, 105, 106, 107, 108, 109, 110, 111, 112, 113, 114, 115, 116, 117, 118, 119, 120, 121, 122, 123, 124, 125, 126, 127, 128, 129, 130, 131, 132, 133, 134, 135, 136, 137, 138, 139, 140, 141, 142, 143, 144, 145, 146, 147, 148, 149, 150, 151, 152, 153, 154, 155, 156, 157, 158, 159, 160, 161, 162, 163, 164, 165, 166, 167, 168, 169, 170, 171, 172, 173, 174, 175, 176, 177, 178, 179, 180, 181, 182, 183, 184, 185, 186, 187, 188, 189, 190, 191, 192, 193, 194, 195, 196, 197, 198, 199, 200, 201, 202, 203, 204, 205, 206, 207, 208, 209, 210, 211, 212, 213, 214, 215, 216, 217, 218, 219, 220, 221, 222, 223, 224, 225, 226, 227, 228, 229, 230, 231, 232, 233, 234, 235, 236, 237, 238, 239, 240, 241, 242, 243, 244, 245, 246, 247, 248, 249, 250, 251, 252, 253, 254, 255, 256, 257, 258, 259, 260, 261, 262, 263, 264, 265, 266, 267, 268, 269, 270, 271, 272, 273, 274, 275],
      "LargestImagePixelValue": [1739, 1673, 1780, 1623, 1655, 1784, 1618, 1621, 1619, 1599, 1665, 1869, 1668, 1595, 1623, 1576, 1765, 1853, 1496, 1630, 1489, 1555, 1441, 1476, 1526, 1594, 1654, 1573, 1667, 1538, 1582, 1601, 1494, 1555, 1697, 1588, 1548, 1583, 1548, 1620, 1819, 1481, 1593, 1480, 1511, 1624, 1475, 1613, 1990, 1501, 1663, 1488, 1495, 1859, 1536, 1469, 1632, 1488, 1491, 1745, 1522, 1573, 1669, 1488, 1460, 1624, 1457, 1504, 1621, 1418, 1448, 1473, 1526, 1491, 1830, 1827, 1566, 1527, 1477, 1409, 1541, 1440, 1415, 1503, 1579, 1548, 1736, 1417, 1477, 1997, 1637, 1601, 1505, 1459, 1428, 1448, 1512, 1394, 1413, 1385, 1453, 1400, 1447, 1501, 1567, 1734, 1737, 1544, 1651, 1595, 1494, 1457, 1525, 1624, 1479, 1374, 1380, 1398, 1478, 1417, 1758, 1467, 1509, 1432, 1459, 1540, 1662, 1628, 1585, 1421, 1419, 1495, 1652, 1498, 1552, 1576, 1397, 1410, 1414, 1419, 1468, 1599, 1628, 1441, 1476, 1404, 1445, 1427, 1696, 1696, 1502, 1395, 1416, 1392, 1606, 1489, 1619, 1420, 1414, 1430, 1440, 1430, 1953, 1437, 1688, 1454, 1476, 1578, 1526, 1414, 1850, 1592, 1555, 1536, 1404, 1647, 1571, 1552, 1440, 1412, 1613, 1688, 1632, 1748, 1425, 1517, 1533, 1510, 1794, 1807, 1817, 1503, 1393, 1497, 1419, 1410, 1609, 1420, 1378, 1501, 1488, 1433, 1517, 1470, 1510, 1512, 1487, 1426, 1426, 1533, 1955, 1398, 1379, 1423, 1410, 1410, 1429, 1633, 1962, 1406, 1523, 1704, 1418, 1408, 1490, 1700, 1814, 1545, 1376, 1396, 1431, 1702, 1969, 1515, 1559, 1387, 1393, 1385, 1415, 1408, 1560, 1406, 1411, 1384, 1452, 1619, 1798, 1447, 1533, 1397, 1566, 1758, 1388, 1398, 1396, 1420, 1793, 1586, 1721, 1764, 1430, 1457, 1554, 1413, 1434, 1741, 1532, 1529, 1596, 1480, 1495, 1531, 1469, 1472, 1412],
      "WindowCenter": [663.0, 661.0, 661.0, 660.0, 660.0, 660.0, 659.0, 659.0, 659.0, 659.0, 659.0, 659.0, 659.0, 660.0, 661.0, 660.0, 660.0, 660.0, 658.0, 659.0, 659.0, 659.0, 659.0, 659.0, 659.0, 660.0, 660.0, 659.0, 659.0, 659.0, 659.0, 659.0, 659.0, 659.0, 659.0, 660.0, 660.0, 660.0, 659.0, 659.0, 660.0, 658.0, 659.0, 659.0, 659.0, 660.0, 659.0, 659.0, 660.0, 659.0, 659.0, 659.0, 659.0, 660.0, 658.0, 658.0, 659.0, 659.0, 659.0, 659.0, 658.0, 658.0, 658.0, 658.0, 659.0, 659.0, 658.0, 659.0, 659.0, 658.0, 659.0, 659.0, 660.0, 660.0, 660.0, 660.0, 659.0, 659.0, 658.0, 658.0, 659.0, 658.0, 659.0, 659.0, 658.0, 658.0, 659.0, 658.0, 659.0, 661.0, 659.0, 658.0, 658.0, 659.0, 659.0, 659.0, 659.0, 658.0, 659.0, 658.0, 658.0, 659.0, 659.0, 659.0, 659.0, 659.0, 659.0, 659.0, 659.0, 658.0, 658.0, 659.0, 660.0, 660.0, 659.0, 659.0, 659.0, 660.0, 660.0, 660.0, 660.0, 659.0, 659.0, 659.0, 660.0, 659.0, 660.0, 659.0, 659.0, 658.0, 658.0, 659.0, 659.0, 658.0, 659.0, 659.0, 658.0, 658.0, 659.0, 659.0, 660.0, 660.0, 660.0, 658.0, 659.0, 659.0, 661.0, 660.0, 661.0, 660.0, 658.0, 659.0, 659.0, 659.0, 660.0, 658.0, 659.0, 659.0, 660.0, 660.0, 660.0, 660.0, 660.0, 658.0, 659.0, 659.0, 659.0, 659.0, 659.0, 659.0, 660.0, 660.0, 659.0, 660.0, 659.0, 660.0, 660.0, 659.0, 660.0, 660.0, 660.0, 659.0, 659.0, 659.0, 659.0, 660.0, 661.0, 661.0, 661.0, 661.0, 660.0, 658.0, 658.0, 658.0, 658.0, 659.0, 659.0, 657.0, 657.0, 658.0, 658.0, 659.0, 659.0, 659.0, 659.0, 658.0, 659.0, 659.0, 660.0, 660.0, 660.0, 658.0, 658.0, 659.0, 660.0, 660.0, 660.0, 660.0, 661.0, 658.0, 659.0, 659.0, 659.0, 659.0, 660.0, 660.0, 660.0, 659.0, 659.0, 660.0, 660.0, 660.0, 661.0, 659.0, 659.0, 658.0, 658.0, 659.0, 659.0, 659.0, 659.0, 658.0, 659.0, 659.0, 660.0, 660.0, 661.0, 660.0, 660.0, 660.0, 660.0, 660.0, 659.0, 660.0, 661.0, 661.0, 661.0, 660.0, 660.0, 659.0, 659.0, 659.0, 659.0, 659.0, 659.0, 660.0, 658.0, 659.0, 659.0, 658.0, 658.0, 659.0, 659.0, 660.0, 661.0],
      "WindowWidth": [1413.0, 1409.0, 1407.0, 1404.0, 1404.0, 1405.0, 1403.0, 1403.0, 1402.0, 1402.0, 1402.0, 1402.0, 1402.0, 1406.0, 1407.0, 1406.0, 1405.0, 1405.0, 1401.0, 1403.0, 1402.0, 1403.0, 1403.0, 1404.0, 1404.0, 1405.0, 1404.0, 1403.0, 1404.0, 1402.0, 1403.0, 1402.0, 1402.0, 1402.0, 1403.0, 1404.0, 1405.0, 1405.0, 1404.0, 1404.0, 1404.0, 1402.0, 1403.0, 1403.0, 1404.0, 1404.0, 1403.0, 1404.0, 1406.0, 1402.0, 1404.0, 1402.0, 1403.0, 1405.0, 1400.0, 1400.0, 1402.0, 1403.0, 1404.0, 1404.0, 1400.0, 1401.0, 1401.0, 1401.0, 1403.0, 1403.0, 1401.0, 1402.0, 1403.0, 1401.0, 1402.0, 1403.0, 1406.0, 1405.0, 1406.0, 1404.0, 1402.0, 1402.0, 1401.0, 1401.0, 1402.0, 1401.0, 1402.0, 1402.0, 1401.0, 1401.0, 1403.0, 1402.0, 1403.0, 1406.0, 1402.0, 1401.0, 1400.0, 1402.0, 1403.0, 1403.0, 1403.0, 1401.0, 1402.0, 1402.0, 1401.0, 1403.0, 1404.0, 1403.0, 1403.0, 1404.0, 1403.0, 1402.0, 1403.0, 1401.0, 1400.0, 1402.0, 1404.0, 1405.0, 1403.0, 1402.0, 1404.0, 1405.0, 1405.0, 1404.0, 1405.0, 1402.0, 1403.0, 1403.0, 1404.0, 1404.0, 1404.0, 1403.0, 1402.0, 1401.0, 1401.0, 1402.0, 1402.0, 1401.0, 1403.0, 1402.0, 1400.0, 1401.0, 1402.0, 1404.0, 1405.0, 1405.0, 1405.0, 1401.0, 1403.0, 1403.0, 1407.0, 1406.0, 1407.0, 1405.0, 1401.0, 1402.0, 1403.0, 1403.0, 1404.0, 1402.0, 1402.0, 1403.0, 1404.0, 1405.0, 1406.0, 1405.0, 1406.0, 1401.0, 1404.0, 1402.0, 1402.0, 1404.0, 1403.0, 1402.0, 1405.0, 1405.0, 1404.0, 1404.0, 1403.0, 1404.0, 1404.0, 1404.0, 1404.0, 1406.0, 1406.0, 1403.0, 1402.0, 1403.0, 1403.0, 1405.0, 1406.0, 1407.0, 1408.0, 1407.0, 1406.0, 1401.0, 1401.0, 1401.0, 1401.0, 1403.0, 1403.0, 1399.0, 1399.0, 1400.0, 1401.0, 1403.0, 1403.0, 1402.0, 1402.0, 1401.0, 1403.0, 1403.0, 1404.0, 1404.0, 1405.0, 1401.0, 1401.0, 1402.0, 1404.0, 1405.0, 1405.0, 1406.0, 1407.0, 1401.0, 1402.0, 1403.0, 1402.0, 1404.0, 1404.0, 1404.0, 1404.0, 1402.0, 1402.0, 1405.0, 1406.0, 1406.0, 1406.0, 1403.0, 1403.0, 1399.0, 1401.0, 1403.0, 1403.0, 1402.0, 1402.0, 1401.0, 1403.0, 1403.0, 1405.0, 1406.0, 1406.0, 1404.0, 1405.0, 1404.0, 1405.0, 1405.0, 1402.0, 1404.0, 1407.0, 1407.0, 1407.0, 1404.0, 1405.0, 1403.0, 1402.0, 1403.0, 1403.0, 1402.0, 1403.0, 1404.0, 1401.0, 1402.0, 1403.0, 1401.0, 1400.0, 1402.0, 1403.0, 1405.0, 1407.0]
    },
    "slices": {}
  }
}