{
  "AcquisitionMatrixPE": 64,
  "AcquisitionNumber": 1,
  "AcquisitionTime": "17:26:36.947500",
  "BandwidthPerPixelPhaseEncode": 31.888,
  "BaseResolution": 64,
  "BodyPartExamined": "HEAD",
  "CoilCombinationMethod": "Sum of Squares",
  "ConsistencyInfo": "N4_VE11C_LATEST_20160120",
  "ConversionSoftware": "dcm2niix",
  "ConversionSoftwareVersion": "v1.0.20211006",
  "DerivedVendorReportedEchoSpacing": 0.000489996,
  "DeviceSerialNumber": "167048",
  "EchoTime": 0.03,
  "EchoTrainLength": 64,
  "EffectiveEchoSpacing": 0.000489996,
  "FlipAngle": 90,
  "ImageOrientationPatientDICOM": [0.987875, 0.13811, -0.0709079, -0.145877, 0.982054, -0.119543],
  "ImageType": [
    "ORIGINAL",
    "PRIMARY",
    "M",
    "ND",
    "NORM",
    "MOSAIC"
],
  "ImagingFrequency": 123.261,
  "InPlanePhaseEncodingDirectionDICOM": "COL",
  "InstitutionAddress": "Azinhaga Santa Comba StreetNo,Coimbra,District,PT,3000",
  "InstitutionName": "ICNAS",
  "MRAcquisitionType": "2D",
  "MagneticFieldStrength": 3,
  "Manufacturer": "Siemens",
  "ManufacturersModelName": "Prisma_fit",
  "MatrixCoilMode": "SENSE",
  "Modality": "MR",
  "PartialFourier": 1,
  "PatientPosition": "HFS",
  "PercentPhaseFOV": 100,
  "PercentSampling": 100,
  "PhaseEncodingDirection": "j-",
  "PhaseEncodingSteps": 64,
  "PhaseResolution": 1,
  "PixelBandwidth": 2365,
  "ProcedureStepDescription": "RM_FUNCIONAL",
  "ProtocolName": "rtfmri_neurofeedback_MTRun2",
  "PulseSequenceDetails": "%SiemensSeq%\\ep2d_bold",
  "ReceiveCoilActiveElements": "HE1-4",
  "ReceiveCoilName": "HeadNeck_20",
  "ReconMatrixPE": 64,
  "RepetitionTime": 2,
  "SAR": 0.0953909,
  "ScanOptions": "FS",
  "ScanningSequence": "EP",
  "SequenceName": "*epfid2d1_64",
  "SequenceVariant": "SK",
  "SeriesDescription": "rtfmri_neurofeedback_MTRun2",
  "SeriesNumber": 5,
  "ShimSetting": [10163, 2079, 8384, 591, 109, -91, 167, -70],
  "SliceThickness": 3,
  "SliceTiming": [0, 1.02, 0.06, 1.08, 0.12, 1.14, 0.18, 1.2, 0.24, 1.26, 0.3, 1.32, 0.36, 1.38, 0.42, 1.44, 0.48, 1.5, 0.54, 1.56, 0.6, 1.62, 0.66, 1.68, 0.72, 1.74, 0.78, 1.8, 0.84, 1.86, 0.9, 1.92, 0.96],
  "SoftwareVersions": "syngo MR E11",
  "SpacingBetweenSlices": 3,
  "StationName": "MRC35377",
  "TaskName": "nf",
  "TotalReadoutTime": 0.0308698,
  "TxRefAmp": 240.119,
  "dcmmeta_affine": [
    [-3.9514999389648438, -0.5835080146789551, -0.15937590599060059, 144.79827880859375],
    [-0.5524399876594543, 3.928215980529785, -0.38531211018562317, -79.55757141113281],
    [-0.2836315929889679, 0.4781720042228699, 2.9708809852600098, -46.34041213989258],
    [0.0, 0.0, 0.0, 1.0]
],
  "dcmmeta_reorient_transform": [
    [0.0, -1.0, 0.0, 63.0],
    [1.0, 0.0, 0.0, 0.0],
    [0.0, 0.0, 1.0, 0.0],
    [0.0, 0.0, 0.0, 1.0]
],
  "dcmmeta_shape": [64, 64, 33, 275],
  "dcmmeta_slice_dim": 2,
  "dcmmeta_version": 0.6,
  "global": {
    "const": {
      "AccessionNumber": "0",
      "AcquisitionMatrix": [64, 0, 0, 64],
      "AngioFlag": "N",
      "BitsAllocated": 16,
      "BitsStored": 12,
      "BodyPartExamined": "HEAD",
      "Columns": 384,
      "EchoNumbers": 1,
      "EchoTime": 30.0,
      "EchoTrainLength": 64,
      "FlipAngle": 90.0,
      "HighBit": 11,
      "ImageOrientationPatient": [0.987875, 0.13811, -0.0709079, -0.145877, 0.982054, -0.119543],
      "ImagePositionPatient": [-646.916, -884.825, 105.673],
      "ImageType": [
        "ORIGINAL",
        "PRIMARY",
        "M",
        "ND",
        "NORM",
        "MOSAIC"
],
      "ImagedNucleus": "1H",
      "ImagingFrequency": 123.261,
      "InPlanePhaseEncodingDirection": "COL",
      "MRAcquisitionType": "2D",
      "MagneticFieldStrength": 3.0,
      "Manufacturer": "SIEMENS",
      "ManufacturerModelName": "Prisma_fit",
      "Modality": "MR",
      "NumberOfAverages": 1.0,
      "NumberOfFrames": 1,
      "NumberOfPhaseEncodingSteps": 64,
      "PercentPhaseFieldOfView": 100.0,
      "PercentSampling": 100.0,
      "PerformedProcedureStepStartTime": "163059.172000",
      "PhotometricInterpretation": "MONOCHROME2",
      "PixelBandwidth": 2365.0,
      "PixelRepresentation": 0,
      "PixelSpacing": [4.0, 4.0],
      "ProtocolName": "rtfmri_neurofeedback_MTRun2",
      "RepetitionTime": 2000.0,
      "RequestAttributesSequence": [
        {
          "RequestedProcedureID": "997",
          "ScheduledProcedureStepDescription": "RM_FUNCIONAL",
          "ScheduledProcedureStepID": "1"}
],
      "Rows": 384,
      "SAR": 0.0953909,
      "SamplesPerPixel": 1,
      "ScanOptions": "FS",
      "ScanningSequence": "EP",
      "SequenceName": "*epfid2d1_64",
      "SequenceVariant": "SK",
      "SeriesDescription": "rtfmri_neurofeedback_MTRun2",
      "SeriesNumber": 5,
      "SeriesTime": "172639.990000",
      "SliceLocation": -43.3644,
      "SliceThickness": 3.0,
      "SmallestImagePixelValue": 0,
      "SoftwareVersions": "syngo MR E11",
      "SpacingBetweenSlices": 3.0,
      "SpecificCharacterSet": "ISO_IR 100",
      "StudyID": "997",
      "StudyTime": "163057.539000",
      "TransmitCoilName": "Body",
      "VariableFlipAngleFlag": "N",
      "WindowCenterWidthExplanation": "Algo1",
      "dBdt": 0.0},
    "slices": {}
  },
  "time": {
    "samples": {
      "AcquisitionNumber": [1, 2, 3, 4, 5, 6, 7, 8, 9, 10, 11, 12, 13, 14, 15, 16, 17, 18, 19, 20, 21, 22, 23, 24, 25, 26, 27, 28, 29, 30, 31, 32, 33, 34, 35, 36, 37, 38, 39, 40, 41, 42, 43, 44, 45, 46, 47, 48, 49, 50, 51, 52, 53, 54, 55, 56, 57, 58, 59, 60, 61, 62, 63, 64, 65, 66, 67, 68, 69, 70, 71, 72, 73, 74, 75, 76, 77, 78, 79, 80, 81, 82, 83, 84, 85, 86, 87, 88, 89, 90, 91, 92, 93, 94, 95, 96, 97, 98, 99, 100, 101, 102, 103, 104, 105, 106, 107, 108, 109, 110, 111, 112, 113, 114, 115, 116, 117, 118, 119, 120, 121, 122, 123, 124, 125, 126, 127, 128, 129, 130, 131, 132, 133, 134, 135, 136, 137, 138, 139, 140, 141, 142, 143, 144, 145, 146, 147, 148, 149, 150, 151, 152, 153, 154, 155, 156, 157, 158, 159, 160, 161, 162, 163, 164, 165, 166, 167, 168, 169, 170, 171, 172, 173, 174, 175, 176, 177, 178, 179, 180, 181, 182, 183, 184, 185, 186, 187, 188, 189, 190, 191, 192, 193, 194, 195, 196, 197, 198, 199, 200, 201, 202, 203, 204, 205, 206, 207, 208, 209, 210, 211, 212, 213, 214, 215, 216, 217, 218, 219, 220, 221, 222, 223, 224, 225, 226, 227, 228, 229, 230, 231, 232, 233, 234, 235, 236, 237, 238, 239, 240, 241, 242, 243, 244, 245, 246, 247, 248, 249, 250, 251, 252, 253, 254, 255, 256, 257, 258, 259, 260, 261, 262, 263, 264, 265, 266, 267, 268, 269, 270, 271, 272, 273, 274, 275],
      "AcquisitionTime": ["172636.947500", "172638.947500", "172640.947500", "172642.947500", "172644.947500", "172646.947500", "172648.947500", "172650.947500", "172652.947500", "172654.947500", "172656.947500", "172658.947500", "172700.947500", "172702.947500", "172704.947500", "172706.947500", "172708.947500", "172710.947500", "172712.947500", "172714.947500", "172716.947500", "172718.947500", "172720.947500", "172722.947500", "172724.947500", "172726.947500", "172728.947500", "172730.947500", "172732.947500", "172734.947500", "172736.947500", "172738.947500", "172740.947500", "172742.947500", "172744.947500", "172746.947500", "172748.947500", "172750.947500", "172752.947500", "172754.947500", "172756.947500", "172758.947500", "172800.947500", "172802.947500", "172804.947500", "172806.947500", "172808.947500", "172810.947500", "172812.947500", "172814.947500", "172816.947500", "172818.947500", "172820.947500", "172822.947500", "172824.947500", "172826.947500", "172828.947500", "172830.947500", "172832.947500", "172834.947500", "172836.947500", "172838.947500", "172840.947500", "172842.947500", "172844.947500", "172846.947500", "172848.947500", "172850.947500", "172852.947500", "172854.947500", "172856.947500", "172858.947500", "172900.947500", "172902.947500", "172904.947500", "172906.947500", "172908.947500", "172910.947500", "172912.947500", "172914.947500", "172916.947500", "172918.947500", "172920.947500", "172922.947500", "172924.947500", "172926.947500", "172928.947500", "172930.947500", "172932.947500", "172934.947500", "172936.947500", "172938.947500", "172940.947500", "172942.947500", "172944.947500", "172946.947500", "172948.947500", "172950.947500", "172952.947500", "172954.947500", "172956.947500", "172958.947500", "173000.947500", "173002.947500", "173004.947500", "173006.947500", "173008.947500", "173010.947500", "173012.947500", "173014.947500", "173016.947500", "173018.947500", "173020.947500", "173022.947500", "173024.947500", "173026.947500", "173028.947500", "173030.947500", "173032.947500", "173034.947500", "173036.947500", "173038.947500", "173040.947500", "173042.947500", "173044.947500", "173046.947500", "173048.947500", "173050.947500", "173052.947500", "173054.947500", "173056.947500", "173058.947500", "173100.947500", "173102.947500", "173104.947500", "173106.947500", "173108.947500", "173110.947500", "173112.947500", "173114.947500", "173116.947500", "173118.947500", "173120.947500", "173122.947500", "173124.947500", "173126.947500", "173128.947500", "173130.947500", "173132.947500", "173134.947500", "173136.947500", "173138.947500", "173140.947500", "173142.947500", "173144.947500", "173146.947500", "173148.947500", "173150.947500", "173152.947500", "173154.947500", "173156.947500", "173158.947500", "173200.947500", "173202.947500", "173204.947500", "173206.947500", "173208.947500", "173210.947500", "173212.947500", "173214.947500", "173216.947500", "173218.947500", "173220.947500", "173222.947500", "173224.947500", "173226.947500", "173228.947500", "173230.947500", "173232.947500", "173234.947500", "173236.947500", "173238.947500", "173240.947500", "173242.947500", "173244.947500", "173246.947500", "173248.947500", "173250.947500", "173252.947500", "173254.947500", "173256.947500", "173258.947500", "173300.947500", "173302.947500", "173304.947500", "173306.947500", "173308.947500", "173310.947500", "173312.947500", "173314.947500", "173316.947500", "173318.947500", "173320.947500", "173322.947500", "173324.947500", "173326.947500", "173328.947500", "173330.947500", "173332.947500", "173334.947500", "173336.947500", "173338.947500", "173340.947500", "173342.947500", "173344.947500", "173346.947500", "173348.947500", "173350.947500", "173352.947500", "173354.947500", "173356.947500", "173358.947500", "173400.947500", "173402.947500", "173404.947500", "173406.947500", "173408.947500", "173410.947500", "173412.947500", "173414.947500", "173416.947500", "173418.947500", "173420.947500", "173422.947500", "173424.947500", "173426.947500", "173428.947500", "173430.947500", "173432.947500", "173434.947500", "173436.947500", "173438.947500", "173440.947500", "173442.947500", "173444.947500", "173446.947500", "173448.947500", "173450.947500", "173452.947500", "173454.947500", "173456.947500", "173458.947500", "173500.947500", "173502.947500", "173504.947500", "173506.947500", "173508.947500", "173510.947500", "173512.947500", "173514.947500", "173516.947500", "173518.947500", "173520.947500", "173522.947500", "173524.947500", "173526.947500", "173528.947500", "173530.947500", "173532.947500", "173534.947500", "173536.947500", "173538.947500", "173540.947500", "173542.947500", "173544.947500"],
      "ContentTime": ["172639.993000", "172641.989000", "172643.989000", "172645.989000", "172647.989000", "172649.989000", "172651.989000", "172653.989000", "172655.989000", "172657.989000", "172659.989000", "172701.989000", "172703.989000", "172705.990000", "172707.989000", "172709.989000", "172711.989000", "172713.989000", "172715.989000", "172717.989000", "172719.989000", "172721.989000", "172723.990000", "172725.989000", "172727.989000", "172729.989000", "172731.989000", "172733.989000", "172735.989000", "172737.989000", "172739.989000", "172741.989000", "172743.989000", "172745.989000", "172747.989000", "172749.989000", "172751.989000", "172753.989000", "172755.989000", "172757.989000", "172759.989000", "172801.989000", "172803.989000", "172805.989000", "172807.989000", "172809.989000", "172811.989000", "172813.989000", "172815.990000", "172817.989000", "172819.989000", "172821.989000", "172823.989000", "172825.989000", "172827.989000", "172829.989000", "172831.989000", "172833.990000", "172835.991000", "172837.991000", "172839.991000", "172841.989000", "172843.989000", "172845.989000", "172847.989000", "172849.989000", "172851.989000", "172853.989000", "172855.989000", "172857.989000", "172859.989000", "172901.989000", "172903.989000", "172905.989000", "172907.989000", "172909.989000", "172911.989000", "172913.989000", "172915.989000", "172917.989000", "172919.989000", "172921.989000", "172923.989000", "172925.990000", "172927.989000", "172929.989000", "172931.989000", "172933.989000", "172935.989000", "172937.989000", "172939.989000", "172941.989000", "172943.990000", "172945.989000", "172947.989000", "172949.989000", "172951.989000", "172953.989000", "172955.989000", "172957.989000", "172959.989000", "173001.989000", "173003.989000", "173005.989000", "173007.989000", "173009.989000", "173011.989000", "173013.989000", "173015.989000", "173017.989000", "173019.989000", "173021.989000", "173023.989000", "173025.989000", "173027.989000", "173029.989000", "173031.989000", "173033.989000", "173035.990000", "173037.989000", "173039.989000", "173041.989000", "173043.989000", "173045.989000", "173047.989000", "173049.989000", "173051.989000", "173053.990000", "173055.989000", "173057.989000", "173059.989000", "173101.989000", "173103.989000", "173105.989000", "173107.989000", "173109.989000", "173111.989000", "173113.989000", "173115.989000", "173117.989000", "173119.989000", "173121.989000", "173123.989000", "173125.989000", "173127.989000", "173129.989000", "173131.989000", "173133.989000", "173135.989000", "173137.989000", "173139.989000", "173141.989000", "173143.989000", "173145.990000", "173147.989000", "173149.989000", "173151.989000", "173153.989000", "173155.989000", "173157.989000", "173159.989000", "173201.989000", "173203.990000", "173205.989000", "173207.989000", "173209.989000", "173211.989000", "173213.989000", "173215.989000", "173217.989000", "173219.989000", "173221.989000", "173223.989000", "173225.989000", "173227.989000", "173229.989000", "173231.989000", "173233.989000", "173235.989000", "173237.990000", "173239.989000", "173241.989000", "173243.989000", "173245.989000", "173247.989000", "173249.989000", "173251.989000", "173253.989000", "173255.990000", "173257.989000", "173259.989000", "173301.989000", "173303.989000", "173305.989000", "173307.989000", "173309.989000", "173311.989000", "173313.990000", "173315.989000", "173317.989000", "173319.989000", "173321.989000", "173323.989000", "173325.989000", "173327.989000", "173329.989000", "173331.989000", "173333.989000", "173335.989000", "173337.989000", "173339.989000", "173341.989000", "173343.989000", "173345.989000", "173347.990000", "173349.989000", "173351.989000", "173353.989000", "173355.989000", "173357.989000", "173359.989000", "173401.989000", "173403.989000", "173405.990000", "173407.989000", "173409.989000", "173411.989000", "173414.001000", "173415.989000", "173417.989000", "173419.989000", "173421.989000", "173423.990000", "173425.989000", "173427.989000", "173429.989000", "173431.989000", "173433.989000", "173435.989000", "173437.989000", "173439.989000", "173441.989000", "173443.989000", "173445.989000", "173447.989000", "173449.989000", "173451.989000", "173453.989000", "173455.989000", "173457.990000", "173459.989000", "173501.989000", "173503.989000", "173505.989000", "173507.989000", "173509.989000", "173511.989000", "173513.989000", "173515.990000", "173517.989000", "173519.989000", "173521.989000", "173523.989000", "173525.989000", "173527.989000", "173529.989000", "173531.989000", "173533.989000", "173535.989000", "173537.989000", "173539.989000", "173541.989000", "173543.989000", "173545.989000", "173547.736000"],
      "InstanceCreationTime": ["172639.993000", "172641.989000", "172643.989000", "172645.989000", "172647.989000", "172649.989000", "172651.989000", "172653.989000", "172655.989000", "172657.989000", "172659.989000", "172701.989000", "172703.989000", "172705.990000", "172707.989000", "172709.989000", "172711.989000", "172713.989000", "172715.989000", "172717.989000", "172719.989000", "172721.989000", "172723.990000", "172725.989000", "172727.989000", "172729.989000", "172731.989000", "172733.989000", "172735.989000", "172737.989000", "172739.989000", "172741.989000", "172743.989000", "172745.989000", "172747.989000", "172749.989000", "172751.989000", "172753.989000", "172755.989000", "172757.989000", "172759.989000", "172801.989000", "172803.989000", "172805.989000", "172807.989000", "172809.989000", "172811.989000", "172813.989000", "172815.990000", "172817.989000", "172819.989000", "172821.989000", "172823.989000", "172825.989000", "172827.989000", "172829.989000", "172831.989000", "172833.990000", "172835.991000", "172837.991000", "172839.991000", "172841.989000", "172843.989000", "172845.989000", "172847.989000", "172849.989000", "172851.989000", "172853.989000", "172855.989000", "172857.989000", "172859.989000", "172901.989000", "172903.989000", "172905.989000", "172907.989000", "172909.989000", "172911.989000", "172913.989000", "172915.989000", "172917.989000", "172919.989000", "172921.989000", "172923.989000", "172925.990000", "172927.989000", "172929.989000", "172931.989000", "172933.989000", "172935.989000", "172937.989000", "172939.989000", "172941.989000", "172943.990000", "172945.989000", "172947.989000", "172949.989000", "172951.989000", "172953.989000", "172955.989000", "172957.989000", "172959.989000", "173001.989000", "173003.989000", "173005.989000", "173007.989000", "173009.989000", "173011.989000", "173013.989000", "173015.989000", "173017.989000", "173019.989000", "173021.989000", "173023.989000", "173025.989000", "173027.989000", "173029.989000", "173031.989000", "173033.989000", "173035.990000", "173037.989000", "173039.989000", "173041.989000", "173043.989000", "173045.989000", "173047.989000", "173049.989000", "173051.989000", "173053.990000", "173055.989000", "173057.989000", "173059.989000", "173101.989000", "173103.989000", "173105.989000", "173107.989000", "173109.989000", "173111.989000", "173113.989000", "173115.989000", "173117.989000", "173119.989000", "173121.989000", "173123.989000", "173125.989000", "173127.989000", "173129.989000", "173131.989000", "173133.989000", "173135.989000", "173137.989000", "173139.989000", "173141.989000", "173143.989000", "173145.990000", "173147.989000", "173149.989000", "173151.989000", "173153.989000", "173155.989000", "173157.989000", "173159.989000", "173201.989000", "173203.990000", "173205.989000", "173207.989000", "173209.989000", "173211.989000", "173213.989000", "173215.989000", "173217.989000", "173219.989000", "173221.989000", "173223.989000", "173225.989000", "173227.989000", "173229.989000", "173231.989000", "173233.989000", "173235.989000", "173237.990000", "173239.989000", "173241.989000", "173243.989000", "173245.989000", "173247.989000", "173249.989000", "173251.989000", "173253.989000", "173255.990000", "173257.989000", "173259.989000", "173301.989000", "173303.989000", "173305.989000", "173307.989000", "173309.989000", "173311.989000", "173313.990000", "173315.989000", "173317.989000", "173319.989000", "173321.989000", "173323.989000", "173325.989000", "173327.989000", "173329.989000", "173331.989000", "173333.989000", "173335.989000", "173337.989000", "173339.989000", "173341.989000", "173343.989000", "173345.989000", "173347.990000", "173349.989000", "173351.989000", "173353.989000", "173355.989000", "173357.989000", "173359.989000", "173401.989000", "173403.989000", "173405.990000", "173407.989000", "173409.989000", "173411.989000", "173414.001000", "173415.989000", "173417.989000", "173419.989000", "173421.989000", "173423.990000", "173425.989000", "173427.989000", "173429.989000", "173431.989000", "173433.989000", "173435.989000", "173437.989000", "173439.989000", "173441.989000", "173443.989000", "173445.989000", "173447.989000", "173449.989000", "173451.989000", "173453.989000", "173455.989000", "173457.990000", "173459.989000", "173501.989000", "173503.989000", "173505.989000", "173507.989000", "173509.989000", "173511.989000", "173513.989000", "173515.990000", "173517.989000", "173519.989000", "173521.989000", "173523.989000", "173525.989000", "173527.989000", "173529.989000", "173531.989000", "173533.989000", "173535.989000", "173537.989000", "173539.989000", "173541.989000", "173543.989000", "173545.989000", "173547.736000"],
      "InstanceNumber": [1, 2, 3, 4, 5, 6, 7, 8, 9, 10, 11, 12, 13, 14, 15, 16, 17, 18, 19, 20, 21, 22, 23, 24, 25, 26, 27, 28, 29, 30, 31, 32, 33, 34, 35, 36, 37, 38, 39, 40, 41, 42, 43, 44, 45, 46, 47, 48, 49, 50, 51, 52, 53, 54, 55, 56, 57, 58, 59, 60, 61, 62, 63, 64, 65, 66, 67, 68, 69, 70, 71, 72, 73, 74, 75, 76, 77, 78, 79, 80, 81, 82, 83, 84, 85, 86, 87, 88, 89, 90, 91, 92, 93, 94, 95, 96, 97, 98, 99, 100, 101, 102, 103, 104, 105, 106, 107, 108, 109, 110, 111, 112, 113, 114, 115, 116, 117, 118, 119, 120, 121, 122, 123, 124, 125, 126, 127, 128, 129, 130, 131, 132, 133, 134, 135, 136, 137, 138, 139, 140, 141, 142, 143, 144, 145, 146, 147, 148, 149, 150, 151, 152, 153, 154, 155, 156, 157, 158, 159, 160, 161, 162, 163, 164, 165, 166, 167, 168, 169, 170, 171, 172, 173, 174, 175, 176, 177, 178, 179, 180, 181, 182, 183, 184, 185, 186, 187, 188, 189, 190, 191, 192, 193, 194, 195, 196, 197, 198, 199, 200, 201, 202, 203, 204, 205, 206, 207, 208, 209, 210, 211, 212, 213, 214, 215, 216, 217, 218, 219, 220, 221, 222, 223, 224, 225, 226, 227, 228, 229, 230, 231, 232, 233, 234, 235, 236, 237, 238, 239, 240, 241, 242, 243, 244, 245, 246, 247, 248, 249, 250, 251, 252, 253, 254, 255, 256, 257, 258, 259, 260, 261, 262, 263, 264, 265, 266, 267, 268, 269, 270, 271, 272, 273, 274, 275],
      "LargestImagePixelValue": [1773, 1832, 1598, 1602, 1613, 1590, 1678, 1567, 1874, 1792, 1616, 1631, 1581, 1614, 1619, 1594, 1715, 1706, 1565, 1576, 1624, 1564, 1600, 1598, 1562, 1842, 1997, 1604, 1568, 1558, 1615, 1566, 1549, 1572, 1593, 1560, 1603, 1607, 1594, 1635, 1823, 1697, 1661, 1576, 1611, 1627, 1586, 1588, 1580, 1642, 1770, 1622, 1647, 1605, 1592, 1599, 1578, 1627, 1696, 1634, 1699, 1641, 1606, 1631, 1620, 1738, 1572, 1594, 1555, 2009, 1654, 1591, 1601, 1567, 1600, 1595, 1559, 1542, 1613, 1598, 1585, 1573, 1607, 1574, 1855, 1687, 1602, 1592, 1604, 1648, 1552, 1567, 1707, 1635, 1555, 1557, 1618, 1832, 1686, 1649, 1601, 1605, 1704, 1662, 1620, 1582, 1603, 1632, 1588, 1579, 1581, 1637, 1629, 1547, 1533, 1666, 1878, 1596, 1650, 1642, 1595, 1650, 1620, 1560, 1566, 1603, 1648, 1563, 1611, 1740, 1543, 1550, 1539, 1843, 1608, 1728, 1749, 1562, 1578, 1608, 1565, 1574, 1789, 1618, 1606, 1548, 1645, 1728, 1629, 1581, 1571, 1608, 1653, 1553, 1604, 1799, 1664, 1608, 1618, 1566, 1624, 1592, 1580, 1556, 1577, 1674, 1651, 1655, 1632, 1656, 1596, 1595, 1596, 1606, 1624, 1623, 1615, 1882, 1759, 1616, 1643, 1668, 1633, 1575, 1655, 1614, 1647, 1595, 1824, 1606, 1612, 1682, 1579, 1579, 1572, 1632, 1579, 1604, 1631, 1740, 1621, 1633, 1591, 1576, 1591, 1592, 1633, 1617, 1609, 1646, 1681, 1637, 1603, 1617, 1622, 1636, 1608, 1672, 1623, 1604, 1594, 1616, 1571, 1619, 1562, 1716, 1843, 1642, 1551, 1577, 1587, 1637, 1564, 1694, 1592, 1601, 1741, 1703, 1722, 1634, 1682, 1640, 1572, 1597, 1605, 1612, 1616, 1628, 1723, 1614, 1590, 1632, 1725, 1632, 1574, 1616, 1593, 1574, 1574, 1614, 1621, 1683, 1569, 1597, 1621, 1615, 1589, 1559, 1572, 1624, 1602, 1795, 1641, 1624, 1630],
      "WindowCenter": [678.0, 676.0, 674.0, 674.0, 674.0, 673.0, 673.0, 673.0, 673.0, 673.0, 672.0, 672.0, 672.0, 673.0, 673.0, 673.0, 673.0, 673.0, 673.0, 673.0, 674.0, 674.0, 675.0, 674.0, 674.0, 675.0, 675.0, 673.0, 673.0, 674.0, 674.0, 673.0, 673.0, 674.0, 674.0, 675.0, 674.0, 674.0, 674.0, 674.0, 674.0, 673.0, 673.0, 673.0, 673.0, 673.0, 674.0, 674.0, 673.0, 673.0, 674.0, 673.0, 673.0, 673.0, 674.0, 674.0, 673.0, 674.0, 673.0, 673.0, 673.0, 673.0, 673.0, 673.0, 673.0, 673.0, 673.0, 673.0, 673.0, 674.0, 673.0, 672.0, 673.0, 673.0, 673.0, 674.0, 673.0, 673.0, 674.0, 674.0, 673.0, 673.0, 673.0, 673.0, 674.0, 673.0, 672.0, 672.0, 673.0, 672.0, 673.0, 672.0, 673.0, 673.0, 673.0, 673.0, 673.0, 673.0, 673.0, 673.0, 673.0, 674.0, 674.0, 673.0, 673.0, 672.0, 673.0, 673.0, 673.0, 673.0, 673.0, 674.0, 674.0, 673.0, 673.0, 673.0, 674.0, 673.0, 673.0, 672.0, 672.0, 672.0, 673.0, 673.0, 673.0, 673.0, 673.0, 673.0, 673.0, 673.0, 672.0, 672.0, 672.0, 673.0, 673.0, 674.0, 673.0, 672.0, 672.0, 673.0, 673.0, 673.0, 674.0, 673.0, 673.0, 674.0, 673.0, 673.0, 672.0, 672.0, 673.0, 672.0, 673.0, 672.0, 673.0, 674.0, 673.0, 673.0, 673.0, 673.0, 673.0, 673.0, 673.0, 673.0, 672.0, 672.0, 673.0, 674.0, 673.0, 673.0, 673.0, 673.0, 673.0, 673.0, 673.0, 673.0, 673.0, 674.0, 673.0, 672.0, 672.0, 672.0, 672.0, 673.0, 672.0, 672.0, 673.0, 672.0, 674.0, 673.0, 673.0, 673.0, 673.0, 673.0, 673.0, 673.0, 673.0, 673.0, 674.0, 674.0, 673.0, 673.0, 674.0, 673.0, 674.0, 673.0, 674.0, 673.0, 674.0, 675.0, 675.0, 674.0, 674.0, 674.0, 674.0, 674.0, 674.0, 674.0, 673.0, 673.0, 673.0, 674.0, 673.0, 674.0, 674.0, 673.0, 674.0, 673.0, 672.0, 672.0, 673.0, 673.0, 673.0, 674.0, 673.0, 673.0, 673.0, 673.0, 673.0, 673.0, 673.0, 673.0, 673.0, 673.0, 673.0, 673.0, 673.0, 673.0, 673.0, 672.0, 672.0, 673.0, 673.0, 673.0, 673.0, 673.0, 673.0, 673.0, 673.0, 673.0, 673.0, 673.0, 672.0, 673.0, 672.0, 673.0, 673.0, 672.0, 673.0, 673.0, 673.0, 673.0, 673.0, 672.0, 672.0],
      "WindowWidth": [1481.0, 1474.0, 1470.0, 1469.0, 1468.0, 1467.0, 1467.0, 1466.0, 1468.0, 1467.0, 1464.0, 1464.0, 1464.0, 1466.0, 1466.0, 1466.0, 1466.0, 1466.0, 1467.0, 1468.0, 1469.0, 1470.0, 1471.0, 1471.0, 1470.0, 1472.0, 1472.0, 1467.0, 1467.0, 1468.0, 1469.0, 1468.0, 1468.0, 1470.0, 1471.0, 1471.0, 1471.0, 1469.0, 1469.0, 1469.0, 1471.0, 1468.0, 1468.0, 1466.0, 1467.0, 1467.0, 1471.0, 1470.0, 1468.0, 1467.0, 1468.0, 1467.0, 1467.0, 1467.0, 1469.0, 1468.0, 1468.0, 1468.0, 1468.0, 1468.0, 1467.0, 1466.0, 1466.0, 1466.0, 1467.0, 1468.0, 1467.0, 1468.0, 1467.0, 1470.0, 1466.0, 1465.0, 1466.0, 1466.0, 1467.0, 1468.0, 1467.0, 1467.0, 1470.0, 1469.0, 1467.0, 1467.0, 1467.0, 1466.0, 1469.0, 1466.0, 1465.0, 1465.0, 1466.0, 1465.0, 1466.0, 1465.0, 1466.0, 1466.0, 1466.0, 1466.0, 1465.0, 1467.0, 1465.0, 1466.0, 1465.0, 1469.0, 1469.0, 1467.0, 1465.0, 1464.0, 1466.0, 1466.0, 1467.0, 1466.0, 1466.0, 1468.0, 1468.0, 1467.0, 1466.0, 1467.0, 1469.0, 1467.0, 1466.0, 1464.0, 1463.0, 1465.0, 1465.0, 1466.0, 1466.0, 1467.0, 1466.0, 1466.0, 1465.0, 1465.0, 1463.0, 1464.0, 1464.0, 1467.0, 1467.0, 1468.0, 1466.0, 1464.0, 1464.0, 1466.0, 1466.0, 1467.0, 1468.0, 1467.0, 1467.0, 1468.0, 1468.0, 1466.0, 1465.0, 1465.0, 1465.0, 1465.0, 1466.0, 1464.0, 1466.0, 1469.0, 1467.0, 1466.0, 1466.0, 1465.0, 1466.0, 1467.0, 1467.0, 1465.0, 1464.0, 1464.0, 1467.0, 1469.0, 1465.0, 1465.0, 1466.0, 1465.0, 1466.0, 1466.0, 1466.0, 1466.0, 1466.0, 1468.0, 1466.0, 1465.0, 1464.0, 1463.0, 1464.0, 1465.0, 1465.0, 1464.0, 1465.0, 1465.0, 1468.0, 1468.0, 1467.0, 1467.0, 1466.0, 1465.0, 1466.0, 1467.0, 1466.0, 1466.0, 1468.0, 1469.0, 1467.0, 1467.0, 1468.0, 1467.0, 1467.0, 1467.0, 1469.0, 1467.0, 1468.0, 1472.0, 1471.0, 1469.0, 1470.0, 1469.0, 1469.0, 1470.0, 1470.0, 1467.0, 1466.0, 1465.0, 1466.0, 1468.0, 1467.0, 1468.0, 1468.0, 1467.0, 1468.0, 1465.0, 1464.0, 1464.0, 1466.0, 1467.0, 1466.0, 1468.0, 1465.0, 1465.0, 1465.0, 1466.0, 1467.0, 1465.0, 1466.0, 1466.0, 1466.0, 1466.0, 1467.0, 1465.0, 1466.0, 1465.0, 1465.0, 1464.0, 1464.0, 1466.0, 1467.0, 1467.0, 1466.0, 1467.0, 1467.0, 1467.0, 1465.0, 1466.0, 1465.0, 1466.0, 1463.0, 1465.0, 1464.0, 1466.0, 1465.0, 1464.0, 1464.0, 1465.0, 1465.0, 1467.0, 1464.0, 1463.0, 1463.0]
    },
    "slices": {}
  }
}