{
  "AcquisitionMatrixPE": 64,
  "AcquisitionNumber": 1,
  "AcquisitionTime": "16:52:54.087500",
  "BandwidthPerPixelPhaseEncode": 31.888,
  "BaseResolution": 64,
  "BodyPartExamined": "HEAD",
  "CoilCombinationMethod": "Sum of Squares",
  "ConsistencyInfo": "N4_VE11C_LATEST_20160120",
  "ConversionSoftware": "dcm2niix",
  "ConversionSoftwareVersion": "v1.0.20211006",
  "DerivedVendorReportedEchoSpacing": 0.000489996,
  "DeviceSerialNumber": "167048",
  "EchoTime": 0.03,
  "EchoTrainLength": 64,
  "EffectiveEchoSpacing": 0.000489996,
  "FlipAngle": 90,
  "ImageOrientationPatientDICOM": [0.987875, 0.13811, -0.0709079, -0.145877, 0.982054, -0.119543],
  "ImageType": [
    "ORIGINAL",
    "PRIMARY",
    "M",
    "ND",
    "NORM",
    "MOSAIC"
],
  "ImagingFrequency": 123.261,
  "InPlanePhaseEncodingDirectionDICOM": "COL",
  "InstitutionAddress": "Azinhaga Santa Comba StreetNo,Coimbra,District,PT,3000",
  "InstitutionName": "ICNAS",
  "MRAcquisitionType": "2D",
  "MagneticFieldStrength": 3,
  "Manufacturer": "Siemens",
  "ManufacturersModelName": "Prisma_fit",
  "MatrixCoilMode": "SENSE",
  "Modality": "MR",
  "PartialFourier": 1,
  "PatientPosition": "HFS",
  "PercentPhaseFOV": 100,
  "PercentSampling": 100,
  "PhaseEncodingDirection": "j-",
  "PhaseEncodingSteps": 64,
  "PhaseResolution": 1,
  "PixelBandwidth": 2365,
  "ProcedureStepDescription": "RM_FUNCIONAL",
  "ProtocolName": "rtfmri_neurofeedback_MTLoc",
  "PulseSequenceDetails": "%SiemensSeq%\\ep2d_bold",
  "ReceiveCoilActiveElements": "HE1-4",
  "ReceiveCoilName": "HeadNeck_20",
  "ReconMatrixPE": 64,
  "RepetitionTime": 2,
  "SAR": 0.0952954,
  "ScanOptions": "FS",
  "ScanningSequence": "EP",
  "SequenceName": "*epfid2d1_64",
  "SequenceVariant": "SK",
  "SeriesDescription": "rtfmri_neurofeedback_MTLoc",
  "SeriesNumber": 3,
  "ShimSetting": [10163, 2079, 8384, 591, 109, -91, 167, -70],
  "SliceThickness": 3,
  "SliceTiming": [0, 1.02, 0.06, 1.08, 0.12, 1.14, 0.18, 1.2, 0.24, 1.26, 0.3, 1.32, 0.36, 1.38, 0.42, 1.44, 0.48, 1.5, 0.54, 1.56, 0.6, 1.62, 0.66, 1.68, 0.72, 1.74, 0.78, 1.8, 0.84, 1.86, 0.9, 1.92, 0.96],
  "SoftwareVersions": "syngo MR E11",
  "SpacingBetweenSlices": 3,
  "StationName": "MRC35377",
  "TaskName": "loc",
  "TotalReadoutTime": 0.0308698,
  "TxRefAmp": 240.119,
  "dcmmeta_affine": [
    [-3.9514999389648438, -0.5835080146789551, -0.15937590599060059, 144.79827880859375],
    [-0.5524399876594543, 3.928215980529785, -0.38531211018562317, -79.55757141113281],
    [-0.2836315929889679, 0.4781720042228699, 2.9708809852600098, -46.34041213989258],
    [0.0, 0.0, 0.0, 1.0]
],
  "dcmmeta_reorient_transform": [
    [0.0, -1.0, 0.0, 63.0],
    [1.0, 0.0, 0.0, 0.0],
    [0.0, 0.0, 1.0, 0.0],
    [0.0, 0.0, 0.0, 1.0]
],
  "dcmmeta_shape": [64, 64, 33, 200],
  "dcmmeta_slice_dim": 2,
  "dcmmeta_version": 0.6,
  "global": {
    "const": {
      "AccessionNumber": "0",
      "AcquisitionMatrix": [64, 0, 0, 64],
      "AngioFlag": "N",
      "BitsAllocated": 16,
      "BitsStored": 12,
      "BodyPartExamined": "HEAD",
      "Columns": 384,
      "EchoNumbers": 1,
      "EchoTime": 30.0,
      "EchoTrainLength": 64,
      "FlipAngle": 90.0,
      "HighBit": 11,
      "ImageOrientationPatient": [0.987875, 0.13811, -0.0709079, -0.145877, 0.982054, -0.119543],
      "ImagePositionPatient": [-646.916, -884.825, 105.673],
      "ImageType": [
        "ORIGINAL",
        "PRIMARY",
        "M",
        "ND",
        "NORM",
        "MOSAIC"
],
      "ImagedNucleus": "1H",
      "ImagingFrequency": 123.261,
      "InPlanePhaseEncodingDirection": "COL",
      "MRAcquisitionType": "2D",
      "MagneticFieldStrength": 3.0,
      "Manufacturer": "SIEMENS",
      "ManufacturerModelName": "Prisma_fit",
      "Modality": "MR",
      "NumberOfAverages": 1.0,
      "NumberOfFrames": 1,
      "NumberOfPhaseEncodingSteps": 64,
      "PercentPhaseFieldOfView": 100.0,
      "PercentSampling": 100.0,
      "PerformedProcedureStepStartTime": "163059.172000",
      "PhotometricInterpretation": "MONOCHROME2",
      "PixelBandwidth": 2365.0,
      "PixelRepresentation": 0,
      "PixelSpacing": [4.0, 4.0],
      "ProtocolName": "rtfmri_neurofeedback_MTLoc",
      "RepetitionTime": 2000.0,
      "RequestAttributesSequence": [
        {
          "RequestedProcedureID": "997",
          "ScheduledProcedureStepDescription": "RM_FUNCIONAL",
          "ScheduledProcedureStepID": "1"}
],
      "Rows": 384,
      "SAR": 0.0952954,
      "SamplesPerPixel": 1,
      "ScanOptions": "FS",
      "ScanningSequence": "EP",
      "SequenceName": "*epfid2d1_64",
      "SequenceVariant": "SK",
      "SeriesDescription": "rtfmri_neurofeedback_MTLoc",
      "SeriesNumber": 3,
      "SeriesTime": "165256.501000",
      "SliceLocation": -43.3644,
      "SliceThickness": 3.0,
      "SmallestImagePixelValue": 0,
      "SoftwareVersions": "syngo MR E11",
      "SpacingBetweenSlices": 3.0,
      "SpecificCharacterSet": "ISO_IR 100",
      "StudyID": "997",
      "StudyTime": "163057.539000",
      "TransmitCoilName": "Body",
      "VariableFlipAngleFlag": "N",
      "WindowCenterWidthExplanation": "Algo1",
      "dBdt": 0.0},
    "slices": {}
  },
  "time": {
    "samples": {
      "AcquisitionNumber": [1, 2, 3, 4, 5, 6, 7, 8, 9, 10, 11, 12, 13, 14, 15, 16, 17, 18, 19, 20, 21, 22, 23, 24, 25, 26, 27, 28, 29, 30, 31, 32, 33, 34, 35, 36, 37, 38, 39, 40, 41, 42, 43, 44, 45, 46, 47, 48, 49, 50, 51, 52, 53, 54, 55, 56, 57, 58, 59, 60, 61, 62, 63, 64, 65, 66, 67, 68, 69, 70, 71, 72, 73, 74, 75, 76, 77, 78, 79, 80, 81, 82, 83, 84, 85, 86, 87, 88, 89, 90, 91, 92, 93, 94, 95, 96, 97, 98, 99, 100, 101, 102, 103, 104, 105, 106, 107, 108, 109, 110, 111, 112, 113, 114, 115, 116, 117, 118, 119, 120, 121, 122, 123, 124, 125, 126, 127, 128, 129, 130, 131, 132, 133, 134, 135, 136, 137, 138, 139, 140, 141, 142, 143, 144, 145, 146, 147, 148, 149, 150, 151, 152, 153, 154, 155, 156, 157, 158, 159, 160, 161, 162, 163, 164, 165, 166, 167, 168, 169, 170, 171, 172, 173, 174, 175, 176, 177, 178, 179, 180, 181, 182, 183, 184, 185, 186, 187, 188, 189, 190, 191, 192, 193, 194, 195, 196, 197, 198, 199, 200],
      "AcquisitionTime": ["165254.087500", "165256.087500", "165258.087500", "165300.087500", "165302.087500", "165304.087500", "165306.087500", "165308.087500", "165310.087500", "165312.087500", "165314.087500", "165316.087500", "165318.087500", "165320.087500", "165322.087500", "165324.087500", "165326.087500", "165328.087500", "165330.087500", "165332.087500", "165334.087500", "165336.087500", "165338.087500", "165340.087500", "165342.087500", "165344.087500", "165346.087500", "165348.087500", "165350.087500", "165352.087500", "165354.087500", "165356.087500", "165358.087500", "165400.087500", "165402.087500", "165404.087500", "165406.087500", "165408.087500", "165410.087500", "165412.087500", "165414.087500", "165416.087500", "165418.087500", "165420.087500", "165422.087500", "165424.087500", "165426.087500", "165428.087500", "165430.087500", "165432.087500", "165434.087500", "165436.087500", "165438.087500", "165440.087500", "165442.087500", "165444.087500", "165446.087500", "165448.087500", "165450.087500", "165452.087500", "165454.087500", "165456.087500", "165458.087500", "165500.087500", "165502.087500", "165504.087500", "165506.087500", "165508.087500", "165510.087500", "165512.087500", "165514.087500", "165516.087500", "165518.087500", "165520.087500", "165522.087500", "165524.087500", "165526.087500", "165528.087500", "165530.087500", "165532.087500", "165534.087500", "165536.087500", "165538.087500", "165540.087500", "165542.087500", "165544.087500", "165546.087500", "165548.087500", "165550.087500", "165552.087500", "165554.087500", "165556.087500", "165558.087500", "165600.087500", "165602.087500", "165604.087500", "165606.087500", "165608.087500", "165610.087500", "165612.087500", "165614.087500", "165616.087500", "165618.087500", "165620.087500", "165622.087500", "165624.087500", "165626.087500", "165628.087500", "165630.087500", "165632.087500", "165634.087500", "165636.087500", "165638.087500", "165640.087500", "165642.087500", "165644.087500", "165646.087500", "165648.087500", "165650.087500", "165652.087500", "165654.087500", "165656.087500", "165658.087500", "165700.087500", "165702.087500", "165704.087500", "165706.087500", "165708.087500", "165710.087500", "165712.087500", "165714.087500", "165716.087500", "165718.087500", "165720.087500", "165722.087500", "165724.087500", "165726.087500", "165728.087500", "165730.087500", "165732.087500", "165734.087500", "165736.087500", "165738.087500", "165740.087500", "165742.087500", "165744.087500", "165746.087500", "165748.087500", "165750.087500", "165752.087500", "165754.087500", "165756.087500", "165758.087500", "165800.087500", "165802.087500", "165804.087500", "165806.087500", "165808.087500", "165810.087500", "165812.087500", "165814.087500", "165816.087500", "165818.087500", "165820.087500", "165822.087500", "165824.087500", "165826.087500", "165828.087500", "165830.087500", "165832.087500", "165834.087500", "165836.087500", "165838.087500", "165840.087500", "165842.087500", "165844.087500", "165846.087500", "165848.087500", "165850.087500", "165852.087500", "165854.087500", "165856.087500", "165858.087500", "165900.087500", "165902.087500", "165904.087500", "165906.087500", "165908.087500", "165910.087500", "165912.087500", "165914.087500", "165916.087500", "165918.087500", "165920.087500", "165922.087500", "165924.087500", "165926.087500", "165928.087500", "165930.087500", "165932.087500"],
      "ContentTime": ["165256.504000", "165258.500000", "165300.501000", "165302.501000", "165304.501000", "165306.500000", "165308.500000", "165310.500000", "165312.500000", "165314.500000", "165316.500000", "165318.501000", "165320.501000", "165322.501000", "165324.500000", "165326.500000", "165328.500000", "165330.500000", "165332.500000", "165334.500000", "165336.501000", "165338.501000", "165340.501000", "165342.500000", "165344.500000", "165346.500000", "165348.500000", "165350.500000", "165352.500000", "165354.501000", "165356.501000", "165358.500000", "165400.500000", "165402.500000", "165404.500000", "165406.500000", "165408.500000", "165410.515000", "165412.501000", "165414.501000", "165416.500000", "165418.500000", "165420.500000", "165422.500000", "165424.500000", "165426.500000", "165428.501000", "165430.501000", "165432.501000", "165434.500000", "165436.500000", "165438.500000", "165440.500000", "165442.500000", "165444.500000", "165446.501000", "165448.501000", "165450.501000", "165452.500000", "165454.500000", "165456.500000", "165458.500000", "165500.500000", "165502.500000", "165504.501000", "165506.501000", "165508.500000", "165510.500000", "165512.500000", "165514.500000", "165516.500000", "165518.500000", "165520.501000", "165522.501000", "165524.501000", "165526.500000", "165528.500000", "165530.500000", "165532.500000", "165534.500000", "165536.500000", "165538.501000", "165540.501000", "165542.501000", "165544.500000", "165546.500000", "165548.500000", "165550.500000", "165552.500000", "165554.500000", "165556.501000", "165558.501000", "165600.501000", "165602.500000", "165604.500000", "165606.500000", "165608.500000", "165610.500000", "165612.500000", "165614.501000", "165616.501000", "165618.500000", "165620.500000", "165622.500000", "165624.500000", "165626.500000", "165628.500000", "165630.501000", "165632.501000", "165634.501000", "165636.500000", "165638.500000", "165640.500000", "165642.500000", "165644.500000", "165646.500000", "165648.501000", "165650.501000", "165652.501000", "165654.501000", "165656.502000", "165658.501000", "165700.500000", "165702.500000", "165704.500000", "165706.501000", "165708.501000", "165710.501000", "165712.500000", "165714.500000", "165716.500000", "165718.500000", "165720.500000", "165722.501000", "165724.501000", "165726.501000", "165728.500000", "165730.500000", "165732.500000", "165734.500000", "165736.500000", "165738.500000", "165740.501000", "165742.501000", "165744.501000", "165746.500000", "165748.500000", "165750.500000", "165752.500000", "165754.500000", "165756.500000", "165758.501000", "165800.501000", "165802.501000", "165804.500000", "165806.500000", "165808.500000", "165810.500000", "165812.500000", "165814.500000", "165816.501000", "165818.501000", "165820.501000", "165822.500000", "165824.500000", "165826.500000", "165828.500000", "165830.500000", "165832.501000", "165834.501000", "165836.501000", "165838.500000", "165840.500000", "165842.500000", "165844.500000", "165846.500000", "165848.500000", "165850.501000", "165852.501000", "165854.501000", "165856.500000", "165858.500000", "165900.500000", "165902.500000", "165904.500000", "165906.500000", "165908.501000", "165910.501000", "165912.501000", "165914.500000", "165916.500000", "165918.500000", "165920.500000", "165922.500000", "165924.500000", "165926.501000", "165928.501000", "165930.501000", "165932.500000", "165934.221000"],
      "InstanceCreationTime": ["165256.504000", "165258.500000", "165300.501000", "165302.501000", "165304.501000", "165306.500000", "165308.500000", "165310.500000", "165312.500000", "165314.500000", "165316.500000", "165318.501000", "165320.501000", "165322.501000", "165324.500000", "165326.500000", "165328.500000", "165330.500000", "165332.500000", "165334.500000", "165336.501000", "165338.501000", "165340.501000", "165342.500000", "165344.500000", "165346.500000", "165348.500000", "165350.500000", "165352.500000", "165354.501000", "165356.501000", "165358.500000", "165400.500000", "165402.500000", "165404.500000", "165406.500000", "165408.500000", "165410.515000", "165412.501000", "165414.501000", "165416.500000", "165418.500000", "165420.500000", "165422.500000", "165424.500000", "165426.500000", "165428.501000", "165430.501000", "165432.501000", "165434.500000", "165436.500000", "165438.500000", "165440.500000", "165442.500000", "165444.500000", "165446.501000", "165448.501000", "165450.501000", "165452.500000", "165454.500000", "165456.500000", "165458.500000", "165500.500000", "165502.500000", "165504.501000", "165506.501000", "165508.500000", "165510.500000", "165512.500000", "165514.500000", "165516.500000", "165518.500000", "165520.501000", "165522.501000", "165524.501000", "165526.500000", "165528.500000", "165530.500000", "165532.500000", "165534.500000", "165536.500000", "165538.501000", "165540.501000", "165542.501000", "165544.500000", "165546.500000", "165548.500000", "165550.500000", "165552.500000", "165554.500000", "165556.501000", "165558.501000", "165600.501000", "165602.500000", "165604.500000", "165606.500000", "165608.500000", "165610.500000", "165612.500000", "165614.501000", "165616.501000", "165618.500000", "165620.500000", "165622.500000", "165624.500000", "165626.500000", "165628.500000", "165630.501000", "165632.501000", "165634.501000", "165636.500000", "165638.500000", "165640.500000", "165642.500000", "165644.500000", "165646.500000", "165648.501000", "165650.501000", "165652.501000", "165654.501000", "165656.502000", "165658.501000", "165700.500000", "165702.500000", "165704.500000", "165706.501000", "165708.501000", "165710.501000", "165712.500000", "165714.500000", "165716.500000", "165718.500000", "165720.500000", "165722.501000", "165724.501000", "165726.501000", "165728.500000", "165730.500000", "165732.500000", "165734.500000", "165736.500000", "165738.500000", "165740.501000", "165742.501000", "165744.501000", "165746.500000", "165748.500000", "165750.500000", "165752.500000", "165754.500000", "165756.500000", "165758.501000", "165800.501000", "165802.501000", "165804.500000", "165806.500000", "165808.500000", "165810.500000", "165812.500000", "165814.500000", "165816.501000", "165818.501000", "165820.501000", "165822.500000", "165824.500000", "165826.500000", "165828.500000", "165830.500000", "165832.501000", "165834.501000", "165836.501000", "165838.500000", "165840.500000", "165842.500000", "165844.500000", "165846.500000", "165848.500000", "165850.501000", "165852.501000", "165854.501000", "165856.500000", "165858.500000", "165900.500000", "165902.500000", "165904.500000", "165906.500000", "165908.501000", "165910.501000", "165912.501000", "165914.500000", "165916.500000", "165918.500000", "165920.500000", "165922.500000", "165924.500000", "165926.501000", "165928.501000", "165930.501000", "165932.500000", "165934.221000"],
      "InstanceNumber": [1, 2, 3, 4, 5, 6, 7, 8, 9, 10, 11, 12, 13, 14, 15, 16, 17, 18, 19, 20, 21, 22, 23, 24, 25, 26, 27, 28, 29, 30, 31, 32, 33, 34, 35, 36, 37, 38, 39, 40, 41, 42, 43, 44, 45, 46, 47, 48, 49, 50, 51, 52, 53, 54, 55, 56, 57, 58, 59, 60, 61, 62, 63, 64, 65, 66, 67, 68, 69, 70, 71, 72, 73, 74, 75, 76, 77, 78, 79, 80, 81, 82, 83, 84, 85, 86, 87, 88, 89, 90, 91, 92, 93, 94, 95, 96, 97, 98, 99, 100, 101, 102, 103, 104, 105, 106, 107, 108, 109, 110, 111, 112, 113, 114, 115, 116, 117, 118, 119, 120, 121, 122, 123, 124, 125, 126, 127, 128, 129, 130, 131, 132, 133, 134, 135, 136, 137, 138, 139, 140, 141, 142, 143, 144, 145, 146, 147, 148, 149, 150, 151, 152, 153, 154, 155, 156, 157, 158, 159, 160, 161, 162, 163, 164, 165, 166, 167, 168, 169, 170, 171, 172, 173, 174, 175, 176, 177, 178, 179, 180, 181, 182, 183, 184, 185, 186, 187, 188, 189, 190, 191, 192, 193, 194, 195, 196, 197, 198, 199, 200],
      "LargestImagePixelValue": [1644, 1569, 1522, 1525, 1515, 1601, 1819, 1617, 1514, 1508, 1521, 1678, 1738, 1509, 1636, 1621, 1524, 1506, 1511, 1738, 1661, 1514, 1523, 1548, 1720, 1661, 1516, 1522, 1517, 1559, 1520, 1682, 1511, 1512, 1517, 1530, 1753, 1560, 1513, 1500, 1517, 1519, 1753, 1503, 1522, 1514, 1505, 1515, 1823, 1628, 1510, 1512, 1574, 1511, 1803, 1525, 1510, 1518, 1519, 1605, 1815, 1527, 1514, 1491, 1508, 1896, 1535, 1500, 1513, 1521, 1595, 1670, 1520, 1509, 1515, 1519, 1795, 1519, 1519, 1510, 1588, 1630, 1514, 1512, 1529, 1577, 1656, 1518, 1515, 1510, 1504, 1669, 1509, 1510, 1526, 1511, 1807, 1597, 1527, 1514, 1513, 1519, 1808, 1514, 1523, 1519, 1506, 1679, 1658, 1509, 1525, 1526, 1531, 1812, 1507, 1514, 1518, 1534, 1689, 1513, 1512, 1522, 1514, 1688, 1545, 1520, 1540, 1517, 1779, 1529, 1503, 1522, 1523, 1669, 1777, 1522, 1508, 1510, 1540, 1789, 1521, 1524, 1530, 1646, 1768, 1531, 1506, 1523, 1527, 1605, 1643, 1531, 1533, 1545, 1516, 1761, 1536, 1517, 1525, 1536, 1877, 1514, 1530, 1513, 1521, 1765, 1540, 1538, 1524, 1525, 1537, 1702, 1526, 1537, 1524, 1514, 1865, 1523, 1520, 1540, 1520, 1590, 1608, 1527, 1542, 1527, 1525, 1704, 1537, 1528, 1539, 1666, 1592, 1547, 1536, 1527, 1531, 1687, 1821, 1536],
      "WindowCenter": [672.0, 671.0, 672.0, 672.0, 672.0, 671.0, 672.0, 671.0, 671.0, 672.0, 672.0, 673.0, 672.0, 671.0, 671.0, 672.0, 672.0, 673.0, 673.0, 674.0, 673.0, 672.0, 672.0, 671.0, 673.0, 673.0, 673.0, 673.0, 673.0, 673.0, 673.0, 673.0, 673.0, 673.0, 673.0, 672.0, 673.0, 672.0, 672.0, 673.0, 673.0, 673.0, 674.0, 673.0, 673.0, 673.0, 673.0, 673.0, 674.0, 673.0, 673.0, 673.0, 672.0, 672.0, 673.0, 672.0, 672.0, 673.0, 673.0, 673.0, 673.0, 672.0, 672.0, 672.0, 672.0, 673.0, 672.0, 672.0, 672.0, 672.0, 672.0, 673.0, 672.0, 672.0, 673.0, 672.0, 673.0, 672.0, 672.0, 672.0, 672.0, 673.0, 672.0, 672.0, 672.0, 673.0, 673.0, 673.0, 673.0, 673.0, 673.0, 674.0, 673.0, 672.0, 672.0, 672.0, 673.0, 672.0, 672.0, 672.0, 672.0, 672.0, 672.0, 671.0, 671.0, 671.0, 672.0, 673.0, 673.0, 672.0, 672.0, 672.0, 672.0, 672.0, 671.0, 671.0, 671.0, 671.0, 672.0, 672.0, 672.0, 673.0, 672.0, 673.0, 672.0, 671.0, 672.0, 672.0, 673.0, 672.0, 672.0, 673.0, 672.0, 673.0, 673.0, 672.0, 672.0, 672.0, 673.0, 673.0, 671.0, 671.0, 671.0, 671.0, 672.0, 671.0, 671.0, 671.0, 671.0, 671.0, 671.0, 671.0, 671.0, 672.0, 672.0, 673.0, 672.0, 672.0, 672.0, 672.0, 673.0, 672.0, 672.0, 672.0, 672.0, 673.0, 672.0, 672.0, 671.0, 671.0, 672.0, 673.0, 671.0, 672.0, 672.0, 672.0, 673.0, 671.0, 672.0, 672.0, 672.0, 672.0, 672.0, 672.0, 672.0, 672.0, 672.0, 673.0, 672.0, 672.0, 672.0, 672.0, 672.0, 672.0, 672.0, 671.0, 671.0, 672.0, 672.0, 671.0],
      "WindowWidth": [1465.0, 1462.0, 1465.0, 1466.0, 1464.0, 1464.0, 1467.0, 1463.0, 1463.0, 1465.0, 1466.0, 1467.0, 1466.0, 1463.0, 1463.0, 1464.0, 1467.0, 1468.0, 1470.0, 1471.0, 1468.0, 1466.0, 1466.0, 1464.0, 1468.0, 1468.0, 1468.0, 1468.0, 1468.0, 1467.0, 1468.0, 1470.0, 1468.0, 1467.0, 1468.0, 1467.0, 1468.0, 1467.0, 1466.0, 1467.0, 1467.0, 1467.0, 1471.0, 1469.0, 1469.0, 1469.0, 1469.0, 1469.0, 1471.0, 1467.0, 1467.0, 1467.0, 1466.0, 1466.0, 1469.0, 1465.0, 1465.0, 1467.0, 1469.0, 1468.0, 1469.0, 1466.0, 1465.0, 1465.0, 1465.0, 1469.0, 1466.0, 1465.0, 1465.0, 1466.0, 1466.0, 1467.0, 1466.0, 1465.0, 1468.0, 1467.0, 1469.0, 1466.0, 1465.0, 1465.0, 1466.0, 1467.0, 1465.0, 1466.0, 1466.0, 1468.0, 1468.0, 1467.0, 1468.0, 1468.0, 1470.0, 1471.0, 1468.0, 1467.0, 1466.0, 1466.0, 1468.0, 1467.0, 1465.0, 1464.0, 1466.0, 1465.0, 1467.0, 1463.0, 1463.0, 1464.0, 1465.0, 1467.0, 1467.0, 1465.0, 1465.0, 1464.0, 1464.0, 1467.0, 1463.0, 1462.0, 1462.0, 1462.0, 1466.0, 1465.0, 1467.0, 1468.0, 1467.0, 1467.0, 1465.0, 1464.0, 1465.0, 1464.0, 1468.0, 1465.0, 1465.0, 1467.0, 1467.0, 1468.0, 1468.0, 1465.0, 1464.0, 1466.0, 1468.0, 1468.0, 1462.0, 1464.0, 1463.0, 1463.0, 1465.0, 1463.0, 1462.0, 1462.0, 1462.0, 1463.0, 1464.0, 1464.0, 1463.0, 1465.0, 1466.0, 1468.0, 1466.0, 1465.0, 1465.0, 1465.0, 1468.0, 1464.0, 1466.0, 1464.0, 1465.0, 1467.0, 1465.0, 1466.0, 1463.0, 1464.0, 1465.0, 1467.0, 1463.0, 1465.0, 1465.0, 1465.0, 1468.0, 1464.0, 1465.0, 1465.0, 1464.0, 1466.0, 1466.0, 1466.0, 1466.0, 1467.0, 1466.0, 1468.0, 1464.0, 1464.0, 1464.0, 1465.0, 1464.0, 1465.0, 1465.0, 1463.0, 1463.0, 1464.0, 1465.0, 1462.0]
    },
    "slices": {}
  }
}