{
  "AcquisitionMatrixPE": 64,
  "AcquisitionNumber": 1,
  "AcquisitionTime": "17:49:6.902500",
  "BandwidthPerPixelPhaseEncode": 31.888,
  "BaseResolution": 64,
  "BodyPartExamined": "HEAD",
  "CoilCombinationMethod": "Sum of Squares",
  "ConsistencyInfo": "N4_VE11C_LATEST_20160120",
  "ConversionSoftware": "dcm2niix",
  "ConversionSoftwareVersion": "v1.0.20211006",
  "DerivedVendorReportedEchoSpacing": 0.000489996,
  "DeviceSerialNumber": "167048",
  "EchoTime": 0.03,
  "EchoTrainLength": 64,
  "EffectiveEchoSpacing": 0.000489996,
  "FlipAngle": 90,
  "ImageOrientationPatientDICOM": [0.987875, 0.13811, -0.0709079, -0.145877, 0.982054, -0.119543],
  "ImageType": [
    "ORIGINAL",
    "PRIMARY",
    "M",
    "ND",
    "NORM",
    "MOSAIC"
],
  "ImagingFrequency": 123.261,
  "InPlanePhaseEncodingDirectionDICOM": "COL",
  "InstitutionAddress": "Azinhaga Santa Comba StreetNo,Coimbra,District,PT,3000",
  "InstitutionName": "ICNAS",
  "MRAcquisitionType": "2D",
  "MagneticFieldStrength": 3,
  "Manufacturer": "Siemens",
  "ManufacturersModelName": "Prisma_fit",
  "MatrixCoilMode": "SENSE",
  "Modality": "MR",
  "PartialFourier": 1,
  "PatientPosition": "HFS",
  "PercentPhaseFOV": 100,
  "PercentSampling": 100,
  "PhaseEncodingDirection": "j-",
  "PhaseEncodingSteps": 64,
  "PhaseResolution": 1,
  "PixelBandwidth": 2365,
  "ProcedureStepDescription": "RM_FUNCIONAL",
  "ProtocolName": "rtfmri_neurofeedback_MTRun4",
  "PulseSequenceDetails": "%SiemensSeq%\\ep2d_bold",
  "ReceiveCoilActiveElements": "HE1-4",
  "ReceiveCoilName": "HeadNeck_20",
  "ReconMatrixPE": 64,
  "RepetitionTime": 2,
  "SAR": 0.0953909,
  "ScanOptions": "FS",
  "ScanningSequence": "EP",
  "SequenceName": "*epfid2d1_64",
  "SequenceVariant": "SK",
  "SeriesDescription": "rtfmri_neurofeedback_MTRun4",
  "SeriesNumber": 7,
  "ShimSetting": [10163, 2079, 8384, 591, 109, -91, 167, -70],
  "SliceThickness": 3,
  "SliceTiming": [0, 1.02, 0.06, 1.08, 0.12, 1.14, 0.18, 1.2, 0.24, 1.26, 0.3, 1.32, 0.36, 1.38, 0.42, 1.44, 0.48, 1.5, 0.54, 1.56, 0.6, 1.62, 0.66, 1.68, 0.72, 1.74, 0.78, 1.8, 0.84, 1.86, 0.9, 1.92, 0.96],
  "SoftwareVersions": "syngo MR E11",
  "SpacingBetweenSlices": 3,
  "StationName": "MRC35377",
  "TaskName": "nf",
  "TotalReadoutTime": 0.0308698,
  "TxRefAmp": 240.119,
  "dcmmeta_affine": [
    [-3.9514999389648438, -0.5835080146789551, -0.15937590599060059, 144.79827880859375],
    [-0.5524399876594543, 3.928215980529785, -0.38531211018562317, -79.55757141113281],
    [-0.2836315929889679, 0.4781720042228699, 2.9708809852600098, -46.34041213989258],
    [0.0, 0.0, 0.0, 1.0]
],
  "dcmmeta_reorient_transform": [
    [0.0, -1.0, 0.0, 63.0],
    [1.0, 0.0, 0.0, 0.0],
    [0.0, 0.0, 1.0, 0.0],
    [0.0, 0.0, 0.0, 1.0]
],
  "dcmmeta_shape": [64, 64, 33, 275],
  "dcmmeta_slice_dim": 2,
  "dcmmeta_version": 0.6,
  "global": {
    "const": {
      "AccessionNumber": "0",
      "AcquisitionMatrix": [64, 0, 0, 64],
      "AngioFlag": "N",
      "BitsAllocated": 16,
      "BitsStored": 12,
      "BodyPartExamined": "HEAD",
      "Columns": 384,
      "EchoNumbers": 1,
      "EchoTime": 30.0,
      "EchoTrainLength": 64,
      "FlipAngle": 90.0,
      "HighBit": 11,
      "ImageOrientationPatient": [0.987875, 0.13811, -0.0709079, -0.145877, 0.982054, -0.119543],
      "ImagePositionPatient": [-646.916, -884.825, 105.673],
      "ImageType": [
        "ORIGINAL",
        "PRIMARY",
        "M",
        "ND",
        "NORM",
        "MOSAIC"
],
      "ImagedNucleus": "1H",
      "ImagingFrequency": 123.261,
      "InPlanePhaseEncodingDirection": "COL",
      "MRAcquisitionType": "2D",
      "MagneticFieldStrength": 3.0,
      "Manufacturer": "SIEMENS",
      "ManufacturerModelName": "Prisma_fit",
      "Modality": "MR",
      "NumberOfAverages": 1.0,
      "NumberOfFrames": 1,
      "NumberOfPhaseEncodingSteps": 64,
      "PercentPhaseFieldOfView": 100.0,
      "PercentSampling": 100.0,
      "PerformedProcedureStepStartTime": "163059.172000",
      "PhotometricInterpretation": "MONOCHROME2",
      "PixelBandwidth": 2365.0,
      "PixelRepresentation": 0,
      "PixelSpacing": [4.0, 4.0],
      "ProtocolName": "rtfmri_neurofeedback_MTRun4",
      "RepetitionTime": 2000.0,
      "RequestAttributesSequence": [
        {
          "RequestedProcedureID": "997",
          "ScheduledProcedureStepDescription": "RM_FUNCIONAL",
          "ScheduledProcedureStepID": "1"}
],
      "Rows": 384,
      "SAR": 0.0953909,
      "SamplesPerPixel": 1,
      "ScanOptions": "FS",
      "ScanningSequence": "EP",
      "SequenceName": "*epfid2d1_64",
      "SequenceVariant": "SK",
      "SeriesDescription": "rtfmri_neurofeedback_MTRun4",
      "SeriesNumber": 7,
      "SeriesTime": "174909.842000",
      "SliceLocation": -43.3644,
      "SliceThickness": 3.0,
      "SmallestImagePixelValue": 0,
      "SoftwareVersions": "syngo MR E11",
      "SpacingBetweenSlices": 3.0,
      "SpecificCharacterSet": "ISO_IR 100",
      "StudyID": "997",
      "StudyTime": "163057.539000",
      "TransmitCoilName": "Body",
      "VariableFlipAngleFlag": "N",
      "WindowCenterWidthExplanation": "Algo1",
      "dBdt": 0.0},
    "slices": {}
  },
  "time": {
    "samples": {
      "AcquisitionNumber": [1, 2, 3, 4, 5, 6, 7, 8, 9, 10, 11, 12, 13, 14, 15, 16, 17, 18, 19, 20, 21, 22, 23, 24, 25, 26, 27, 28, 29, 30, 31, 32, 33, 34, 35, 36, 37, 38, 39, 40, 41, 42, 43, 44, 45, 46, 47, 48, 49, 50, 51, 52, 53, 54, 55, 56, 57, 58, 59, 60, 61, 62, 63, 64, 65, 66, 67, 68, 69, 70, 71, 72, 73, 74, 75, 76, 77, 78, 79, 80, 81, 82, 83, 84, 85, 86, 87, 88, 89, 90, 91, 92, 93, 94, 95, 96, 97, 98, 99, 100, 101, 102, 103, 104, 105, 106, 107, 108, 109, 110, 111, 112, 113, 114, 115, 116, 117, 118, 119, 120, 121, 122, 123, 124, 125, 126, 127, 128, 129, 130, 131, 132, 133, 134, 135, 136, 137, 138, 139, 140, 141, 142, 143, 144, 145, 146, 147, 148, 149, 150, 151, 152, 153, 154, 155, 156, 157, 158, 159, 160, 161, 162, 163, 164, 165, 166, 167, 168, 169, 170, 171, 172, 173, 174, 175, 176, 177, 178, 179, 180, 181, 182, 183, 184, 185, 186, 187, 188, 189, 190, 191, 192, 193, 194, 195, 196, 197, 198, 199, 200, 201, 202, 203, 204, 205, 206, 207, 208, 209, 210, 211, 212, 213, 214, 215, 216, 217, 218, 219, 220, 221, 222, 223, 224, 225, 226, 227, 228, 229, 230, 231, 232, 233, 234, 235, 236, 237, 238, 239, 240, 241, 242, 243, 244, 245, 246, 247, 248, 249, 250, 251, 252, 253, 254, 255, 256, 257, 258, 259, 260, 261, 262, 263, 264, 265, 266, 267, 268, 269, 270, 271, 272, 273, 274, 275],
      "AcquisitionTime": ["174906.902500", "174908.902500", "174910.902500", "174912.902500", "174914.902500", "174916.902500", "174918.902500", "174920.902500", "174922.902500", "174924.902500", "174926.902500", "174928.902500", "174930.902500", "174932.902500", "174934.902500", "174936.902500", "174938.902500", "174940.902500", "174942.902500", "174944.902500", "174946.902500", "174948.902500", "174950.902500", "174952.902500", "174954.902500", "174956.902500", "174958.902500", "175000.902500", "175002.902500", "175004.902500", "175006.902500", "175008.902500", "175010.902500", "175012.902500", "175014.902500", "175016.902500", "175018.902500", "175020.902500", "175022.902500", "175024.902500", "175026.902500", "175028.902500", "175030.902500", "175032.902500", "175034.902500", "175036.902500", "175038.902500", "175040.902500", "175042.902500", "175044.902500", "175046.902500", "175048.902500", "175050.902500", "175052.902500", "175054.902500", "175056.902500", "175058.902500", "175100.902500", "175102.902500", "175104.902500", "175106.902500", "175108.902500", "175110.902500", "175112.902500", "175114.902500", "175116.902500", "175118.902500", "175120.902500", "175122.902500", "175124.902500", "175126.902500", "175128.902500", "175130.902500", "175132.902500", "175134.902500", "175136.902500", "175138.902500", "175140.902500", "175142.902500", "175144.902500", "175146.902500", "175148.902500", "175150.902500", "175152.902500", "175154.902500", "175156.902500", "175158.902500", "175200.902500", "175202.902500", "175204.902500", "175206.902500", "175208.902500", "175210.902500", "175212.902500", "175214.902500", "175216.902500", "175218.902500", "175220.902500", "175222.902500", "175224.902500", "175226.902500", "175228.902500", "175230.902500", "175232.902500", "175234.902500", "175236.902500", "175238.902500", "175240.902500", "175242.902500", "175244.902500", "175246.902500", "175248.902500", "175250.902500", "175252.902500", "175254.902500", "175256.902500", "175258.902500", "175300.902500", "175302.902500", "175304.902500", "175306.902500", "175308.902500", "175310.902500", "175312.902500", "175314.902500", "175316.902500", "175318.902500", "175320.902500", "175322.902500", "175324.902500", "175326.902500", "175328.902500", "175330.902500", "175332.902500", "175334.902500", "175336.902500", "175338.902500", "175340.902500", "175342.902500", "175344.902500", "175346.902500", "175348.902500", "175350.902500", "175352.902500", "175354.902500", "175356.902500", "175358.902500", "175400.902500", "175402.902500", "175404.902500", "175406.902500", "175408.902500", "175410.902500", "175412.902500", "175414.902500", "175416.902500", "175418.902500", "175420.902500", "175422.902500", "175424.902500", "175426.902500", "175428.902500", "175430.902500", "175432.902500", "175434.902500", "175436.902500", "175438.902500", "175440.902500", "175442.902500", "175444.902500", "175446.902500", "175448.902500", "175450.902500", "175452.902500", "175454.902500", "175456.902500", "175458.902500", "175500.902500", "175502.902500", "175504.902500", "175506.902500", "175508.902500", "175510.902500", "175512.902500", "175514.902500", "175516.902500", "175518.902500", "175520.902500", "175522.902500", "175524.902500", "175526.902500", "175528.902500", "175530.902500", "175532.902500", "175534.902500", "175536.902500", "175538.902500", "175540.902500", "175542.902500", "175544.902500", "175546.902500", "175548.902500", "175550.902500", "175552.902500", "175554.902500", "175556.902500", "175558.902500", "175600.902500", "175602.902500", "175604.902500", "175606.902500", "175608.902500", "175610.902500", "175612.902500", "175614.902500", "175616.902500", "175618.902500", "175620.902500", "175622.902500", "175624.902500", "175626.902500", "175628.902500", "175630.902500", "175632.902500", "175634.902500", "175636.902500", "175638.902500", "175640.902500", "175642.902500", "175644.902500", "175646.902500", "175648.902500", "175650.902500", "175652.902500", "175654.902500", "175656.902500", "175658.902500", "175700.902500", "175702.902500", "175704.902500", "175706.902500", "175708.902500", "175710.902500", "175712.902500", "175714.902500", "175716.902500", "175718.902500", "175720.902500", "175722.902500", "175724.902500", "175726.902500", "175728.902500", "175730.902500", "175732.902500", "175734.902500", "175736.902500", "175738.902500", "175740.902500", "175742.902500", "175744.902500", "175746.902500", "175748.902500", "175750.902500", "175752.902500", "175754.902500", "175756.902500", "175758.902500", "175800.902500", "175802.902500", "175804.902500", "175806.902500", "175808.902500", "175810.902500", "175812.902500", "175814.902500"],
      "ContentTime": ["174909.844000", "174911.840000", "174913.840000", "174915.841000", "174917.841000", "174919.840000", "174921.840000", "174923.840000", "174925.840000", "174927.840000", "174929.840000", "174931.840000", "174933.841000", "174935.841000", "174937.840000", "174939.840000", "174941.840000", "174943.840000", "174945.853000", "174947.840000", "174949.841000", "174951.841000", "174953.841000", "174955.840000", "174957.840000", "174959.840000", "175001.840000", "175003.840000", "175005.840000", "175007.841000", "175009.841000", "175011.840000", "175013.840000", "175015.840000", "175017.840000", "175019.840000", "175021.840000", "175023.840000", "175025.841000", "175027.841000", "175029.840000", "175031.840000", "175033.840000", "175035.840000", "175037.840000", "175039.840000", "175041.840000", "175043.841000", "175045.841000", "175047.840000", "175049.840000", "175051.840000", "175053.840000", "175055.840000", "175057.840000", "175059.841000", "175101.841000", "175103.841000", "175105.840000", "175107.840000", "175109.840000", "175111.840000", "175113.840000", "175115.840000", "175117.841000", "175119.841000", "175121.840000", "175123.840000", "175125.840000", "175127.840000", "175129.840000", "175131.840000", "175133.840000", "175135.841000", "175137.841000", "175139.840000", "175141.840000", "175143.840000", "175145.840000", "175147.840000", "175149.840000", "175151.840000", "175153.841000", "175155.841000", "175157.840000", "175159.840000", "175201.840000", "175203.840000", "175205.840000", "175207.840000", "175209.841000", "175211.841000", "175213.841000", "175215.840000", "175217.840000", "175219.840000", "175221.840000", "175223.840000", "175225.840000", "175227.841000", "175229.841000", "175231.840000", "175233.840000", "175235.840000", "175237.840000", "175239.840000", "175241.840000", "175243.840000", "175245.841000", "175247.841000", "175249.840000", "175251.840000", "175253.840000", "175255.840000", "175257.840000", "175259.840000", "175301.841000", "175303.841000", "175305.841000", "175307.840000", "175309.840000", "175311.840000", "175313.840000", "175315.840000", "175317.840000", "175319.841000", "175321.841000", "175323.841000", "175325.840000", "175327.840000", "175329.840000", "175331.840000", "175333.840000", "175335.840000", "175337.841000", "175339.841000", "175341.840000", "175343.840000", "175345.840000", "175347.840000", "175349.840000", "175351.840000", "175353.840000", "175355.841000", "175357.841000", "175359.840000", "175401.840000", "175403.840000", "175405.840000", "175407.840000", "175409.840000", "175411.841000", "175413.841000", "175415.841000", "175417.840000", "175419.840000", "175421.840000", "175423.840000", "175425.840000", "175427.840000", "175429.841000", "175431.841000", "175433.841000", "175435.840000", "175437.840000", "175439.840000", "175441.840000", "175443.840000", "175445.840000", "175447.841000", "175449.841000", "175451.840000", "175453.840000", "175455.840000", "175457.840000", "175459.840000", "175501.840000", "175503.840000", "175505.841000", "175507.841000", "175509.840000", "175511.840000", "175513.840000", "175515.840000", "175517.840000", "175519.840000", "175521.841000", "175523.841000", "175525.841000", "175527.840000", "175529.840000", "175531.840000", "175533.840000", "175535.840000", "175537.840000", "175539.841000", "175541.841000", "175543.841000", "175545.840000", "175547.840000", "175549.840000", "175551.840000", "175553.840000", "175555.840000", "175557.841000", "175559.841000", "175601.840000", "175603.840000", "175605.840000", "175607.840000", "175609.840000", "175611.840000", "175613.840000", "175615.841000", "175617.841000", "175619.840000", "175621.840000", "175623.840000", "175625.840000", "175627.840000", "175629.840000", "175631.841000", "175633.841000", "175635.841000", "175637.840000", "175639.840000", "175641.840000", "175643.840000", "175645.840000", "175647.840000", "175649.841000", "175651.841000", "175653.841000", "175655.840000", "175657.840000", "175659.840000", "175701.840000", "175703.840000", "175705.840000", "175707.841000", "175709.841000", "175711.840000", "175713.840000", "175715.840000", "175717.840000", "175719.840000", "175721.840000", "175723.840000", "175725.841000", "175727.841000", "175729.840000", "175731.840000", "175733.840000", "175735.840000", "175737.840000", "175739.840000", "175741.841000", "175743.841000", "175745.841000", "175747.840000", "175749.840000", "175751.840000", "175753.840000", "175755.840000", "175757.840000", "175759.841000", "175801.841000", "175803.840000", "175805.840000", "175807.840000", "175809.840000", "175811.840000", "175813.840000", "175815.840000", "175817.547000"],
      "InstanceCreationTime": ["174909.844000", "174911.840000", "174913.840000", "174915.841000", "174917.841000", "174919.840000", "174921.840000", "174923.840000", "174925.840000", "174927.840000", "174929.840000", "174931.840000", "174933.841000", "174935.841000", "174937.840000", "174939.840000", "174941.840000", "174943.840000", "174945.853000", "174947.840000", "174949.841000", "174951.841000", "174953.841000", "174955.840000", "174957.840000", "174959.840000", "175001.840000", "175003.840000", "175005.840000", "175007.841000", "175009.841000", "175011.840000", "175013.840000", "175015.840000", "175017.840000", "175019.840000", "175021.840000", "175023.840000", "175025.841000", "175027.841000", "175029.840000", "175031.840000", "175033.840000", "175035.840000", "175037.840000", "175039.840000", "175041.840000", "175043.841000", "175045.841000", "175047.840000", "175049.840000", "175051.840000", "175053.840000", "175055.840000", "175057.840000", "175059.841000", "175101.841000", "175103.841000", "175105.840000", "175107.840000", "175109.840000", "175111.840000", "175113.840000", "175115.840000", "175117.841000", "175119.841000", "175121.840000", "175123.840000", "175125.840000", "175127.840000", "175129.840000", "175131.840000", "175133.840000", "175135.841000", "175137.841000", "175139.840000", "175141.840000", "175143.840000", "175145.840000", "175147.840000", "175149.840000", "175151.840000", "175153.841000", "175155.841000", "175157.840000", "175159.840000", "175201.840000", "175203.840000", "175205.840000", "175207.840000", "175209.841000", "175211.841000", "175213.841000", "175215.840000", "175217.840000", "175219.840000", "175221.840000", "175223.840000", "175225.840000", "175227.841000", "175229.841000", "175231.840000", "175233.840000", "175235.840000", "175237.840000", "175239.840000", "175241.840000", "175243.840000", "175245.841000", "175247.841000", "175249.840000", "175251.840000", "175253.840000", "175255.840000", "175257.840000", "175259.840000", "175301.841000", "175303.841000", "175305.841000", "175307.840000", "175309.840000", "175311.840000", "175313.840000", "175315.840000", "175317.840000", "175319.841000", "175321.841000", "175323.841000", "175325.840000", "175327.840000", "175329.840000", "175331.840000", "175333.840000", "175335.840000", "175337.841000", "175339.841000", "175341.840000", "175343.840000", "175345.840000", "175347.840000", "175349.840000", "175351.840000", "175353.840000", "175355.841000", "175357.841000", "175359.840000", "175401.840000", "175403.840000", "175405.840000", "175407.840000", "175409.840000", "175411.841000", "175413.841000", "175415.841000", "175417.840000", "175419.840000", "175421.840000", "175423.840000", "175425.840000", "175427.840000", "175429.841000", "175431.841000", "175433.841000", "175435.840000", "175437.840000", "175439.840000", "175441.840000", "175443.840000", "175445.840000", "175447.841000", "175449.841000", "175451.840000", "175453.840000", "175455.840000", "175457.840000", "175459.840000", "175501.840000", "175503.840000", "175505.841000", "175507.841000", "175509.840000", "175511.840000", "175513.840000", "175515.840000", "175517.840000", "175519.840000", "175521.841000", "175523.841000", "175525.841000", "175527.840000", "175529.840000", "175531.840000", "175533.840000", "175535.840000", "175537.840000", "175539.841000", "175541.841000", "175543.841000", "175545.840000", "175547.840000", "175549.840000", "175551.840000", "175553.840000", "175555.840000", "175557.841000", "175559.841000", "175601.840000", "175603.840000", "175605.840000", "175607.840000", "175609.840000", "175611.840000", "175613.840000", "175615.841000", "175617.841000", "175619.840000", "175621.840000", "175623.840000", "175625.840000", "175627.840000", "175629.840000", "175631.841000", "175633.841000", "175635.841000", "175637.840000", "175639.840000", "175641.840000", "175643.840000", "175645.840000", "175647.840000", "175649.841000", "175651.841000", "175653.841000", "175655.840000", "175657.840000", "175659.840000", "175701.840000", "175703.840000", "175705.840000", "175707.841000", "175709.841000", "175711.840000", "175713.840000", "175715.840000", "175717.840000", "175719.840000", "175721.840000", "175723.840000", "175725.841000", "175727.841000", "175729.840000", "175731.840000", "175733.840000", "175735.840000", "175737.840000", "175739.840000", "175741.841000", "175743.841000", "175745.841000", "175747.840000", "175749.840000", "175751.840000", "175753.840000", "175755.840000", "175757.840000", "175759.841000", "175801.841000", "175803.840000", "175805.840000", "175807.840000", "175809.840000", "175811.840000", "175813.840000", "175815.840000", "175817.547000"],
      "InstanceNumber": [1, 2, 3, 4, 5, 6, 7, 8, 9, 10, 11, 12, 13, 14, 15, 16, 17, 18, 19, 20, 21, 22, 23, 24, 25, 26, 27, 28, 29, 30, 31, 32, 33, 34, 35, 36, 37, 38, 39, 40, 41, 42, 43, 44, 45, 46, 47, 48, 49, 50, 51, 52, 53, 54, 55, 56, 57, 58, 59, 60, 61, 62, 63, 64, 65, 66, 67, 68, 69, 70, 71, 72, 73, 74, 75, 76, 77, 78, 79, 80, 81, 82, 83, 84, 85, 86, 87, 88, 89, 90, 91, 92, 93, 94, 95, 96, 97, 98, 99, 100, 101, 102, 103, 104, 105, 106, 107, 108, 109, 110, 111, 112, 113, 114, 115, 116, 117, 118, 119, 120, 121, 122, 123, 124, 125, 126, 127, 128, 129, 130, 131, 132, 133, 134, 135, 136, 137, 138, 139, 140, 141, 142, 143, 144, 145, 146, 147, 148, 149, 150, 151, 152, 153, 154, 155, 156, 157, 158, 159, 160, 161, 162, 163, 164, 165, 166, 167, 168, 169, 170, 171, 172, 173, 174, 175, 176, 177, 178, 179, 180, 181, 182, 183, 184, 185, 186, 187, 188, 189, 190, 191, 192, 193, 194, 195, 196, 197, 198, 199, 200, 201, 202, 203, 204, 205, 206, 207, 208, 209, 210, 211, 212, 213, 214, 215, 216, 217, 218, 219, 220, 221, 222, 223, 224, 225, 226, 227, 228, 229, 230, 231, 232, 233, 234, 235, 236, 237, 238, 239, 240, 241, 242, 243, 244, 245, 246, 247, 248, 249, 250, 251, 252, 253, 254, 255, 256, 257, 258, 259, 260, 261, 262, 263, 264, 265, 266, 267, 268, 269, 270, 271, 272, 273, 274, 275],
      "LargestImagePixelValue": [1813, 1740, 1692, 1768, 1737, 1784, 1718, 1694, 1687, 1974, 1703, 1743, 1794, 1662, 1712, 1869, 1648, 1701, 2010, 1726, 1750, 1776, 1697, 1707, 1779, 1714, 1729, 1718, 1666, 1797, 1739, 1674, 1706, 1774, 1953, 1760, 1833, 1755, 1735, 1790, 1752, 1668, 1771, 1818, 1631, 1702, 1961, 1756, 1753, 1816, 1733, 1752, 1788, 1719, 1723, 1737, 1656, 1670, 1864, 1903, 1802, 1794, 1784, 1729, 1719, 1714, 1755, 1745, 1699, 1650, 1703, 1857, 1765, 1792, 1703, 1727, 1791, 1762, 1730, 1724, 1733, 1705, 1807, 1771, 1663, 1714, 1824, 1843, 1831, 1829, 1793, 1708, 1693, 1702, 1708, 1651, 1715, 1938, 1782, 1760, 1788, 1735, 1684, 1797, 1863, 1674, 1754, 1887, 1907, 1771, 1813, 1729, 1780, 1802, 1741, 1709, 1844, 1751, 1725, 1699, 2042, 1800, 1736, 1805, 1821, 1755, 1702, 1713, 1867, 1642, 1749, 1802, 1931, 1853, 1740, 1746, 1806, 1782, 1750, 1722, 1778, 1777, 1721, 1700, 1758, 1977, 1766, 1789, 1852, 1732, 1729, 1722, 1792, 1723, 1671, 1715, 1971, 1830, 1762, 1753, 1668, 1768, 1862, 1749, 1729, 1801, 1698, 1736, 1789, 1788, 1741, 1756, 1832, 1767, 1837, 1775, 1761, 1672, 1704, 1748, 1731, 1862, 1987, 1814, 1816, 1776, 1817, 1715, 1733, 1771, 1803, 1773, 1801, 1810, 1761, 1907, 1754, 1738, 1695, 1827, 1921, 1808, 1733, 1828, 1847, 1856, 1714, 1637, 2009, 1814, 1732, 1803, 1794, 1792, 1806, 1907, 1791, 1707, 1858, 1991, 1825, 1781, 1847, 1815, 1785, 1767, 1822, 1852, 1807, 1808, 1814, 1811, 2127, 1814, 1788, 1734, 1837, 1802, 1789, 1797, 1819, 1784, 1870, 1885, 1683, 1745, 1808, 1775, 1917, 2006, 1981, 1842, 1830, 1833, 1878, 1826, 1840, 1817, 1867, 1868, 1897, 1793, 1810, 1810, 1760, 1762, 1934, 1996, 1874, 1841, 1833, 1907, 1792, 1842, 1845],
      "WindowCenter": [676.0, 674.0, 673.0, 673.0, 673.0, 673.0, 673.0, 672.0, 673.0, 674.0, 672.0, 673.0, 673.0, 673.0, 673.0, 674.0, 673.0, 673.0, 674.0, 673.0, 673.0, 673.0, 673.0, 674.0, 674.0, 673.0, 673.0, 673.0, 673.0, 674.0, 674.0, 674.0, 674.0, 674.0, 674.0, 673.0, 673.0, 673.0, 672.0, 673.0, 673.0, 672.0, 673.0, 673.0, 672.0, 673.0, 674.0, 673.0, 673.0, 673.0, 673.0, 673.0, 673.0, 673.0, 673.0, 673.0, 673.0, 673.0, 674.0, 674.0, 673.0, 673.0, 673.0, 673.0, 673.0, 673.0, 673.0, 673.0, 673.0, 672.0, 673.0, 673.0, 673.0, 673.0, 673.0, 673.0, 674.0, 674.0, 674.0, 673.0, 673.0, 672.0, 673.0, 672.0, 672.0, 673.0, 673.0, 673.0, 673.0, 673.0, 674.0, 673.0, 673.0, 672.0, 673.0, 673.0, 673.0, 674.0, 674.0, 673.0, 673.0, 673.0, 672.0, 673.0, 673.0, 672.0, 672.0, 672.0, 673.0, 672.0, 673.0, 672.0, 673.0, 672.0, 672.0, 673.0, 673.0, 673.0, 674.0, 673.0, 675.0, 674.0, 674.0, 674.0, 673.0, 673.0, 673.0, 673.0, 673.0, 672.0, 673.0, 673.0, 674.0, 673.0, 673.0, 673.0, 673.0, 673.0, 673.0, 673.0, 673.0, 673.0, 673.0, 673.0, 673.0, 674.0, 673.0, 673.0, 673.0, 672.0, 673.0, 673.0, 673.0, 673.0, 673.0, 673.0, 674.0, 673.0, 673.0, 673.0, 673.0, 674.0, 674.0, 673.0, 673.0, 673.0, 673.0, 674.0, 674.0, 674.0, 673.0, 673.0, 673.0, 673.0, 673.0, 673.0, 673.0, 673.0, 673.0, 673.0, 673.0, 674.0, 674.0, 674.0, 673.0, 673.0, 673.0, 673.0, 673.0, 674.0, 674.0, 673.0, 673.0, 672.0, 672.0, 672.0, 671.0, 671.0, 671.0, 673.0, 673.0, 672.0, 671.0, 673.0, 673.0, 672.0, 672.0, 672.0, 674.0, 674.0, 674.0, 674.0, 674.0, 673.0, 673.0, 673.0, 672.0, 672.0, 673.0, 673.0, 672.0, 672.0, 673.0, 672.0, 673.0, 673.0, 673.0, 673.0, 672.0, 673.0, 673.0, 673.0, 674.0, 673.0, 673.0, 673.0, 673.0, 673.0, 672.0, 672.0, 672.0, 672.0, 673.0, 673.0, 673.0, 673.0, 674.0, 673.0, 674.0, 674.0, 674.0, 673.0, 673.0, 673.0, 674.0, 673.0, 672.0, 672.0, 672.0, 672.0, 672.0, 671.0, 672.0, 672.0, 672.0, 672.0, 673.0, 673.0, 673.0, 673.0, 674.0, 674.0, 673.0, 673.0, 673.0],
      "WindowWidth": [1475.0, 1468.0, 1467.0, 1467.0, 1466.0, 1466.0, 1465.0, 1464.0, 1465.0, 1468.0, 1465.0, 1466.0, 1466.0, 1466.0, 1467.0, 1468.0, 1465.0, 1467.0, 1470.0, 1465.0, 1466.0, 1467.0, 1466.0, 1469.0, 1469.0, 1466.0, 1467.0, 1466.0, 1467.0, 1469.0, 1469.0, 1468.0, 1468.0, 1469.0, 1469.0, 1467.0, 1467.0, 1465.0, 1465.0, 1466.0, 1466.0, 1465.0, 1466.0, 1467.0, 1465.0, 1466.0, 1469.0, 1467.0, 1467.0, 1467.0, 1465.0, 1466.0, 1467.0, 1465.0, 1466.0, 1467.0, 1466.0, 1467.0, 1468.0, 1468.0, 1466.0, 1467.0, 1466.0, 1465.0, 1466.0, 1465.0, 1465.0, 1467.0, 1466.0, 1464.0, 1466.0, 1467.0, 1467.0, 1467.0, 1466.0, 1467.0, 1470.0, 1469.0, 1468.0, 1467.0, 1466.0, 1464.0, 1465.0, 1464.0, 1463.0, 1466.0, 1466.0, 1465.0, 1466.0, 1465.0, 1468.0, 1467.0, 1466.0, 1464.0, 1466.0, 1466.0, 1467.0, 1470.0, 1468.0, 1465.0, 1466.0, 1466.0, 1464.0, 1466.0, 1466.0, 1463.0, 1464.0, 1465.0, 1465.0, 1464.0, 1465.0, 1463.0, 1466.0, 1464.0, 1464.0, 1465.0, 1467.0, 1467.0, 1468.0, 1467.0, 1472.0, 1469.0, 1468.0, 1469.0, 1467.0, 1467.0, 1465.0, 1466.0, 1466.0, 1464.0, 1467.0, 1466.0, 1468.0, 1467.0, 1467.0, 1467.0, 1467.0, 1466.0, 1466.0, 1466.0, 1466.0, 1467.0, 1466.0, 1465.0, 1466.0, 1468.0, 1465.0, 1465.0, 1465.0, 1464.0, 1465.0, 1465.0, 1467.0, 1466.0, 1465.0, 1467.0, 1470.0, 1467.0, 1467.0, 1466.0, 1465.0, 1469.0, 1469.0, 1466.0, 1466.0, 1467.0, 1467.0, 1469.0, 1469.0, 1468.0, 1466.0, 1467.0, 1466.0, 1465.0, 1466.0, 1465.0, 1465.0, 1465.0, 1467.0, 1467.0, 1467.0, 1468.0, 1469.0, 1468.0, 1467.0, 1466.0, 1466.0, 1465.0, 1466.0, 1468.0, 1467.0, 1466.0, 1465.0, 1464.0, 1463.0, 1463.0, 1461.0, 1461.0, 1462.0, 1466.0, 1467.0, 1464.0, 1462.0, 1466.0, 1465.0, 1464.0, 1463.0, 1463.0, 1469.0, 1468.0, 1468.0, 1469.0, 1468.0, 1467.0, 1466.0, 1467.0, 1464.0, 1464.0, 1466.0, 1466.0, 1463.0, 1464.0, 1465.0, 1464.0, 1465.0, 1466.0, 1465.0, 1465.0, 1464.0, 1465.0, 1465.0, 1465.0, 1468.0, 1466.0, 1465.0, 1466.0, 1465.0, 1465.0, 1464.0, 1464.0, 1463.0, 1464.0, 1466.0, 1466.0, 1466.0, 1467.0, 1468.0, 1467.0, 1468.0, 1468.0, 1468.0, 1466.0, 1467.0, 1467.0, 1468.0, 1466.0, 1464.0, 1463.0, 1463.0, 1462.0, 1463.0, 1462.0, 1463.0, 1463.0, 1462.0, 1464.0, 1467.0, 1467.0, 1466.0, 1465.0, 1468.0, 1468.0, 1467.0, 1466.0, 1467.0]
    },
    "slices": {}
  }
}