{
  "AcquisitionMatrixPE": 64,
  "AcquisitionNumber": 1,
  "AcquisitionTime": "16:13:27.910000",
  "BandwidthPerPixelPhaseEncode": 31.888,
  "BaseResolution": 64,
  "BodyPartExamined": "HEAD",
  "CoilCombinationMethod": "Sum of Squares",
  "ConsistencyInfo": "N4_VE11C_LATEST_20160120",
  "ConversionSoftware": "dcm2niix",
  "ConversionSoftwareVersion": "v1.0.20211006",
  "DerivedVendorReportedEchoSpacing": 0.000489996,
  "DeviceSerialNumber": "167048",
  "EchoTime": 0.03,
  "EchoTrainLength": 64,
  "EffectiveEchoSpacing": 0.000489996,
  "FlipAngle": 90,
  "ImageOrientationPatientDICOM": [0.995221, -0.0963368, 0.0159779, 0.0975823, 0.974879, -0.200224],
  "ImageType": [
    "ORIGINAL",
    "PRIMARY",
    "M",
    "ND",
    "NORM",
    "MOSAIC"
],
  "ImagingFrequency": 123.261,
  "InPlanePhaseEncodingDirectionDICOM": "COL",
  "InstitutionAddress": "Azinhaga Santa Comba StreetNo,Coimbra,District,PT,3000",
  "InstitutionName": "ICNAS",
  "MRAcquisitionType": "2D",
  "MagneticFieldStrength": 3,
  "Manufacturer": "Siemens",
  "ManufacturersModelName": "Prisma_fit",
  "MatrixCoilMode": "SENSE",
  "Modality": "MR",
  "PartialFourier": 1,
  "PatientPosition": "HFS",
  "PercentPhaseFOV": 100,
  "PercentSampling": 100,
  "PhaseEncodingDirection": "j-",
  "PhaseEncodingSteps": 64,
  "PhaseResolution": 1,
  "PixelBandwidth": 2365,
  "ProcedureStepDescription": "RM_FUNCIONAL",
  "ProtocolName": "rtfmri_neurofeedback_MTRun3",
  "PulseSequenceDetails": "%SiemensSeq%\\ep2d_bold",
  "ReceiveCoilActiveElements": "HE1-4",
  "ReceiveCoilName": "HeadNeck_20",
  "ReconMatrixPE": 64,
  "RepetitionTime": 2,
  "SAR": 0.110218,
  "ScanOptions": "FS",
  "ScanningSequence": "EP",
  "SequenceName": "*epfid2d1_64",
  "SequenceVariant": "SK",
  "SeriesDescription": "rtfmri_neurofeedback_MTRun3",
  "SeriesNumber": 6,
  "ShimSetting": [10161, 2138, 8399, 446, -5, 84, 43, -24],
  "SliceThickness": 3,
  "SliceTiming": [0, 1.02, 0.06, 1.08, 0.12, 1.14, 0.18, 1.2, 0.24, 1.26, 0.3, 1.32, 0.36, 1.38, 0.42, 1.44, 0.48, 1.5, 0.54, 1.56, 0.6, 1.62, 0.66, 1.6775, 0.72, 1.7375, 0.78, 1.7975, 0.84, 1.8575, 0.9, 1.9175, 0.96],
  "SoftwareVersions": "syngo MR E11",
  "SpacingBetweenSlices": 3,
  "StationName": "MRC35377",
  "TaskName": "nf",
  "TotalReadoutTime": 0.0308698,
  "TxRefAmp": 249.818,
  "dcmmeta_affine": [
    [-3.980884075164795, 0.3903292119503021, -0.011137261055409908, 117.83414459228516],
    [0.3853471875190735, 3.8995161056518555, -0.6024788618087769, -99.94451904296875],
    [0.06391160190105438, 0.8008959889411926, 2.9388625621795654, -65.48595428466797],
    [0.0, 0.0, 0.0, 1.0]
],
  "dcmmeta_reorient_transform": [
    [0.0, -1.0, 0.0, 63.0],
    [1.0, 0.0, 0.0, 0.0],
    [0.0, 0.0, 1.0, 0.0],
    [0.0, 0.0, 0.0, 1.0]
],
  "dcmmeta_shape": [64, 64, 33, 275],
  "dcmmeta_slice_dim": 2,
  "dcmmeta_version": 0.6,
  "global": {
    "const": {
      "AccessionNumber": "0",
      "AcquisitionMatrix": [64, 0, 0, 64],
      "AngioFlag": "N",
      "BitsAllocated": 16,
      "BitsStored": 12,
      "BodyPartExamined": "HEAD",
      "Columns": 384,
      "EchoNumbers": 1,
      "EchoTime": 30.0,
      "EchoTrainLength": 64,
      "FlipAngle": 90.0,
      "HighBit": 11,
      "ImageOrientationPatient": [0.995221, -0.0963368, 0.0159779, 0.0975823, 0.974879, -0.200224],
      "ImagePositionPatient": [-841.819, -707.992, 102.888],
      "ImageType": [
        "ORIGINAL",
        "PRIMARY",
        "M",
        "ND",
        "NORM",
        "MOSAIC"
],
      "ImagedNucleus": "1H",
      "ImagingFrequency": 123.261,
      "InPlanePhaseEncodingDirection": "COL",
      "MRAcquisitionType": "2D",
      "MagneticFieldStrength": 3.0,
      "Manufacturer": "SIEMENS",
      "ManufacturerModelName": "Prisma_fit",
      "Modality": "MR",
      "NumberOfAverages": 1.0,
      "NumberOfFrames": 1,
      "NumberOfPhaseEncodingSteps": 64,
      "PercentPhaseFieldOfView": 100.0,
      "PercentSampling": 100.0,
      "PerformedProcedureStepStartTime": "151042.693000",
      "PhotometricInterpretation": "MONOCHROME2",
      "PixelBandwidth": 2365.0,
      "PixelRepresentation": 0,
      "PixelSpacing": [4.0, 4.0],
      "ProtocolName": "rtfmri_neurofeedback_MTRun3",
      "RepetitionTime": 2000.0,
      "RequestAttributesSequence": [
        {
          "RequestedProcedureID": "941",
          "ScheduledProcedureStepDescription": "RM_FUNCIONAL",
          "ScheduledProcedureStepID": "1"}
],
      "Rows": 384,
      "SAR": 0.110218,
      "SamplesPerPixel": 1,
      "ScanOptions": "FS",
      "ScanningSequence": "EP",
      "SequenceName": "*epfid2d1_64",
      "SequenceVariant": "SK",
      "SeriesDescription": "rtfmri_neurofeedback_MTRun3",
      "SeriesNumber": 6,
      "SeriesTime": "161330.572000",
      "SliceLocation": -44.5171,
      "SliceThickness": 3.0,
      "SmallestImagePixelValue": 0,
      "SoftwareVersions": "syngo MR E11",
      "SpacingBetweenSlices": 3.0,
      "SpecificCharacterSet": "ISO_IR 100",
      "StudyID": "941",
      "StudyTime": "151041.253000",
      "TransmitCoilName": "Body",
      "VariableFlipAngleFlag": "N",
      "WindowCenterWidthExplanation": "Algo1",
      "dBdt": 0.0},
    "slices": {}
  },
  "time": {
    "samples": {
      "AcquisitionNumber": [1, 2, 3, 4, 5, 6, 7, 8, 9, 10, 11, 12, 13, 14, 15, 16, 17, 18, 19, 20, 21, 22, 23, 24, 25, 26, 27, 28, 29, 30, 31, 32, 33, 34, 35, 36, 37, 38, 39, 40, 41, 42, 43, 44, 45, 46, 47, 48, 49, 50, 51, 52, 53, 54, 55, 56, 57, 58, 59, 60, 61, 62, 63, 64, 65, 66, 67, 68, 69, 70, 71, 72, 73, 74, 75, 76, 77, 78, 79, 80, 81, 82, 83, 84, 85, 86, 87, 88, 89, 90, 91, 92, 93, 94, 95, 96, 97, 98, 99, 100, 101, 102, 103, 104, 105, 106, 107, 108, 109, 110, 111, 112, 113, 114, 115, 116, 117, 118, 119, 120, 121, 122, 123, 124, 125, 126, 127, 128, 129, 130, 131, 132, 133, 134, 135, 136, 137, 138, 139, 140, 141, 142, 143, 144, 145, 146, 147, 148, 149, 150, 151, 152, 153, 154, 155, 156, 157, 158, 159, 160, 161, 162, 163, 164, 165, 166, 167, 168, 169, 170, 171, 172, 173, 174, 175, 176, 177, 178, 179, 180, 181, 182, 183, 184, 185, 186, 187, 188, 189, 190, 191, 192, 193, 194, 195, 196, 197, 198, 199, 200, 201, 202, 203, 204, 205, 206, 207, 208, 209, 210, 211, 212, 213, 214, 215, 216, 217, 218, 219, 220, 221, 222, 223, 224, 225, 226, 227, 228, 229, 230, 231, 232, 233, 234, 235, 236, 237, 238, 239, 240, 241, 242, 243, 244, 245, 246, 247, 248, 249, 250, 251, 252, 253, 254, 255, 256, 257, 258, 259, 260, 261, 262, 263, 264, 265, 266, 267, 268, 269, 270, 271, 272, 273, 274, 275],
      "AcquisitionTime": ["161327.910000", "161329.910000", "161331.910000", "161333.910000", "161335.910000", "161337.910000", "161339.910000", "161341.910000", "161343.910000", "161345.910000", "161347.910000", "161349.910000", "161351.910000", "161353.910000", "161355.910000", "161357.910000", "161359.910000", "161401.910000", "161403.910000", "161405.910000", "161407.910000", "161409.910000", "161411.910000", "161413.910000", "161415.910000", "161417.910000", "161419.910000", "161421.910000", "161423.910000", "161425.910000", "161427.910000", "161429.910000", "161431.910000", "161433.910000", "161435.910000", "161437.910000", "161439.910000", "161441.910000", "161443.910000", "161445.910000", "161447.910000", "161449.910000", "161451.910000", "161453.910000", "161455.910000", "161457.910000", "161459.910000", "161501.910000", "161503.910000", "161505.910000", "161507.910000", "161509.910000", "161511.910000", "161513.910000", "161515.910000", "161517.910000", "161519.910000", "161521.910000", "161523.910000", "161525.910000", "161527.910000", "161529.910000", "161531.910000", "161533.910000", "161535.910000", "161537.910000", "161539.910000", "161541.910000", "161543.910000", "161545.910000", "161547.910000", "161549.910000", "161551.910000", "161553.910000", "161555.910000", "161557.910000", "161559.910000", "161601.910000", "161603.910000", "161605.910000", "161607.910000", "161609.910000", "161611.910000", "161613.910000", "161615.910000", "161617.910000", "161619.910000", "161621.910000", "161623.910000", "161625.910000", "161627.910000", "161629.910000", "161631.910000", "161633.910000", "161635.910000", "161637.910000", "161639.910000", "161641.910000", "161643.910000", "161645.910000", "161647.910000", "161649.910000", "161651.910000", "161653.910000", "161655.910000", "161657.910000", "161659.910000", "161701.910000", "161703.910000", "161705.910000", "161707.910000", "161709.910000", "161711.910000", "161713.910000", "161715.910000", "161717.910000", "161719.910000", "161721.910000", "161723.910000", "161725.910000", "161727.910000", "161729.910000", "161731.910000", "161733.910000", "161735.910000", "161737.910000", "161739.910000", "161741.910000", "161743.910000", "161745.910000", "161747.910000", "161749.910000", "161751.910000", "161753.910000", "161755.910000", "161757.910000", "161759.910000", "161801.910000", "161803.910000", "161805.910000", "161807.910000", "161809.910000", "161811.910000", "161813.910000", "161815.910000", "161817.910000", "161819.910000", "161821.910000", "161823.910000", "161825.910000", "161827.910000", "161829.910000", "161831.910000", "161833.910000", "161835.910000", "161837.910000", "161839.910000", "161841.910000", "161843.910000", "161845.910000", "161847.910000", "161849.910000", "161851.910000", "161853.910000", "161855.910000", "161857.910000", "161859.910000", "161901.910000", "161903.910000", "161905.910000", "161907.910000", "161909.910000", "161911.910000", "161913.910000", "161915.910000", "161917.910000", "161919.910000", "161921.910000", "161923.910000", "161925.910000", "161927.910000", "161929.910000", "161931.910000", "161933.910000", "161935.910000", "161937.910000", "161939.910000", "161941.910000", "161943.910000", "161945.910000", "161947.910000", "161949.910000", "161951.910000", "161953.910000", "161955.910000", "161957.910000", "161959.910000", "162001.910000", "162003.910000", "162005.910000", "162007.910000", "162009.910000", "162011.910000", "162013.910000", "162015.910000", "162017.910000", "162019.910000", "162021.910000", "162023.910000", "162025.910000", "162027.910000", "162029.910000", "162031.910000", "162033.910000", "162035.910000", "162037.910000", "162039.910000", "162041.910000", "162043.910000", "162045.910000", "162047.910000", "162049.910000", "162051.910000", "162053.910000", "162055.910000", "162057.910000", "162059.910000", "162101.910000", "162103.910000", "162105.910000", "162107.910000", "162109.910000", "162111.910000", "162113.910000", "162115.910000", "162117.910000", "162119.910000", "162121.910000", "162123.910000", "162125.910000", "162127.910000", "162129.910000", "162131.910000", "162133.910000", "162135.910000", "162137.910000", "162139.910000", "162141.910000", "162143.910000", "162145.910000", "162147.910000", "162149.910000", "162151.910000", "162153.910000", "162155.910000", "162157.910000", "162159.910000", "162201.910000", "162203.910000", "162205.910000", "162207.910000", "162209.910000", "162211.910000", "162213.910000", "162215.910000", "162217.910000", "162219.910000", "162221.910000", "162223.910000", "162225.910000", "162227.910000", "162229.910000", "162231.910000", "162233.910000", "162235.910000"],
      "ContentTime": ["161330.575000", "161332.571000", "161334.571000", "161336.572000", "161338.572000", "161340.571000", "161342.571000", "161344.571000", "161346.571000", "161348.571000", "161350.571000", "161352.571000", "161354.572000", "161356.572000", "161358.571000", "161400.571000", "161402.571000", "161404.571000", "161406.571000", "161408.571000", "161410.571000", "161412.572000", "161414.572000", "161416.571000", "161418.571000", "161420.571000", "161422.571000", "161424.571000", "161426.571000", "161428.571000", "161430.572000", "161432.571000", "161434.571000", "161436.571000", "161438.571000", "161440.571000", "161442.571000", "161444.571000", "161446.572000", "161448.572000", "161450.571000", "161452.571000", "161454.571000", "161456.571000", "161458.571000", "161500.571000", "161502.571000", "161504.572000", "161506.572000", "161508.571000", "161510.571000", "161512.571000", "161514.571000", "161516.571000", "161518.571000", "161520.571000", "161522.572000", "161524.572000", "161526.571000", "161528.571000", "161530.571000", "161532.571000", "161534.571000", "161536.571000", "161538.571000", "161540.572000", "161542.571000", "161544.571000", "161546.571000", "161548.571000", "161550.571000", "161552.571000", "161554.571000", "161556.572000", "161558.572000", "161600.571000", "161602.571000", "161604.571000", "161606.571000", "161608.571000", "161610.571000", "161612.571000", "161614.572000", "161616.572000", "161618.571000", "161620.571000", "161622.571000", "161624.571000", "161626.571000", "161628.571000", "161630.571000", "161632.572000", "161634.572000", "161636.571000", "161638.571000", "161640.571000", "161642.571000", "161644.571000", "161646.571000", "161648.571000", "161650.572000", "161652.571000", "161654.571000", "161656.571000", "161658.571000", "161700.571000", "161702.571000", "161704.571000", "161706.572000", "161708.572000", "161710.571000", "161712.571000", "161714.571000", "161716.571000", "161718.571000", "161720.571000", "161722.571000", "161724.572000", "161726.572000", "161728.571000", "161730.571000", "161732.571000", "161734.571000", "161736.571000", "161738.571000", "161740.571000", "161742.572000", "161744.572000", "161746.571000", "161748.571000", "161750.571000", "161752.571000", "161754.571000", "161756.571000", "161758.571000", "161800.572000", "161802.571000", "161804.571000", "161806.571000", "161808.571000", "161810.571000", "161812.571000", "161814.571000", "161816.572000", "161818.572000", "161820.571000", "161822.571000", "161824.571000", "161826.571000", "161828.571000", "161830.571000", "161832.571000", "161834.572000", "161836.572000", "161838.571000", "161840.571000", "161842.571000", "161844.571000", "161846.571000", "161848.571000", "161850.571000", "161852.572000", "161854.572000", "161856.571000", "161858.571000", "161900.571000", "161902.571000", "161904.571000", "161906.571000", "161908.571000", "161910.583000", "161912.571000", "161914.571000", "161916.571000", "161918.571000", "161920.571000", "161922.571000", "161924.571000", "161926.572000", "161928.572000", "161930.571000", "161932.571000", "161934.571000", "161936.571000", "161938.571000", "161940.571000", "161942.571000", "161944.572000", "161946.572000", "161948.571000", "161950.571000", "161952.571000", "161954.571000", "161956.571000", "161958.571000", "162000.571000", "162002.572000", "162004.572000", "162006.571000", "162008.571000", "162010.571000", "162012.571000", "162014.571000", "162016.571000", "162018.572000", "162020.572000", "162022.571000", "162024.571000", "162026.571000", "162028.571000", "162030.571000", "162032.571000", "162034.571000", "162036.572000", "162038.572000", "162040.571000", "162042.571000", "162044.571000", "162046.571000", "162048.571000", "162050.571000", "162052.571000", "162054.572000", "162056.572000", "162058.571000", "162100.571000", "162102.571000", "162104.571000", "162106.571000", "162108.571000", "162110.571000", "162112.572000", "162114.572000", "162116.571000", "162118.571000", "162120.571000", "162122.571000", "162124.571000", "162126.571000", "162128.572000", "162130.572000", "162132.571000", "162134.571000", "162136.571000", "162138.571000", "162140.571000", "162142.571000", "162144.571000", "162146.572000", "162148.572000", "162150.571000", "162152.571000", "162154.571000", "162156.571000", "162158.571000", "162200.571000", "162202.571000", "162204.572000", "162206.572000", "162208.571000", "162210.571000", "162212.571000", "162214.571000", "162216.571000", "162218.571000", "162220.571000", "162222.572000", "162224.571000", "162226.571000", "162228.571000", "162230.571000", "162232.571000", "162234.571000", "162236.571000", "162238.287000"],
      "InstanceCreationTime": ["161330.575000", "161332.571000", "161334.571000", "161336.572000", "161338.572000", "161340.571000", "161342.571000", "161344.571000", "161346.571000", "161348.571000", "161350.571000", "161352.571000", "161354.572000", "161356.572000", "161358.571000", "161400.571000", "161402.571000", "161404.571000", "161406.571000", "161408.571000", "161410.571000", "161412.572000", "161414.572000", "161416.571000", "161418.571000", "161420.571000", "161422.571000", "161424.571000", "161426.571000", "161428.571000", "161430.572000", "161432.571000", "161434.571000", "161436.571000", "161438.571000", "161440.571000", "161442.571000", "161444.571000", "161446.572000", "161448.572000", "161450.571000", "161452.571000", "161454.571000", "161456.571000", "161458.571000", "161500.571000", "161502.571000", "161504.572000", "161506.572000", "161508.571000", "161510.571000", "161512.571000", "161514.571000", "161516.571000", "161518.571000", "161520.571000", "161522.572000", "161524.572000", "161526.571000", "161528.571000", "161530.571000", "161532.571000", "161534.571000", "161536.571000", "161538.571000", "161540.572000", "161542.571000", "161544.571000", "161546.571000", "161548.571000", "161550.571000", "161552.571000", "161554.571000", "161556.572000", "161558.572000", "161600.571000", "161602.571000", "161604.571000", "161606.571000", "161608.571000", "161610.571000", "161612.571000", "161614.572000", "161616.572000", "161618.571000", "161620.571000", "161622.571000", "161624.571000", "161626.571000", "161628.571000", "161630.571000", "161632.572000", "161634.572000", "161636.571000", "161638.571000", "161640.571000", "161642.571000", "161644.571000", "161646.571000", "161648.571000", "161650.572000", "161652.571000", "161654.571000", "161656.571000", "161658.571000", "161700.571000", "161702.571000", "161704.571000", "161706.572000", "161708.572000", "161710.571000", "161712.571000", "161714.571000", "161716.571000", "161718.571000", "161720.571000", "161722.571000", "161724.572000", "161726.572000", "161728.571000", "161730.571000", "161732.571000", "161734.571000", "161736.571000", "161738.571000", "161740.571000", "161742.572000", "161744.572000", "161746.571000", "161748.571000", "161750.571000", "161752.571000", "161754.571000", "161756.571000", "161758.571000", "161800.572000", "161802.571000", "161804.571000", "161806.571000", "161808.571000", "161810.571000", "161812.571000", "161814.571000", "161816.572000", "161818.572000", "161820.571000", "161822.571000", "161824.571000", "161826.571000", "161828.571000", "161830.571000", "161832.571000", "161834.572000", "161836.572000", "161838.571000", "161840.571000", "161842.571000", "161844.571000", "161846.571000", "161848.571000", "161850.571000", "161852.572000", "161854.572000", "161856.571000", "161858.571000", "161900.571000", "161902.571000", "161904.571000", "161906.571000", "161908.571000", "161910.583000", "161912.571000", "161914.571000", "161916.571000", "161918.571000", "161920.571000", "161922.571000", "161924.571000", "161926.572000", "161928.572000", "161930.571000", "161932.571000", "161934.571000", "161936.571000", "161938.571000", "161940.571000", "161942.571000", "161944.572000", "161946.572000", "161948.571000", "161950.571000", "161952.571000", "161954.571000", "161956.571000", "161958.571000", "162000.571000", "162002.572000", "162004.572000", "162006.571000", "162008.571000", "162010.571000", "162012.571000", "162014.571000", "162016.571000", "162018.572000", "162020.572000", "162022.571000", "162024.571000", "162026.571000", "162028.571000", "162030.571000", "162032.571000", "162034.571000", "162036.572000", "162038.572000", "162040.571000", "162042.571000", "162044.571000", "162046.571000", "162048.571000", "162050.571000", "162052.571000", "162054.572000", "162056.572000", "162058.571000", "162100.571000", "162102.571000", "162104.571000", "162106.571000", "162108.571000", "162110.571000", "162112.572000", "162114.572000", "162116.571000", "162118.571000", "162120.571000", "162122.571000", "162124.571000", "162126.571000", "162128.572000", "162130.572000", "162132.571000", "162134.571000", "162136.571000", "162138.571000", "162140.571000", "162142.571000", "162144.571000", "162146.572000", "162148.572000", "162150.571000", "162152.571000", "162154.571000", "162156.571000", "162158.571000", "162200.571000", "162202.571000", "162204.572000", "162206.572000", "162208.571000", "162210.571000", "162212.571000", "162214.571000", "162216.571000", "162218.571000", "162220.571000", "162222.572000", "162224.571000", "162226.571000", "162228.571000", "162230.571000", "162232.571000", "162234.571000", "162236.571000", "162238.287000"],
      "InstanceNumber": [1, 2, 3, 4, 5, 6, 7, 8, 9, 10, 11, 12, 13, 14, 15, 16, 17, 18, 19, 20, 21, 22, 23, 24, 25, 26, 27, 28, 29, 30, 31, 32, 33, 34, 35, 36, 37, 38, 39, 40, 41, 42, 43, 44, 45, 46, 47, 48, 49, 50, 51, 52, 53, 54, 55, 56, 57, 58, 59, 60, 61, 62, 63, 64, 65, 66, 67, 68, 69, 70, 71, 72, 73, 74, 75, 76, 77, 78, 79, 80, 81, 82, 83, 84, 85, 86, 87, 88, 89, 90, 91, 92, 93, 94, 95, 96, 97, 98, 99, 100, 101, 102, 103, 104, 105, 106, 107, 108, 109, 110, 111, 112, 113, 114, 115, 116, 117, 118, 119, 120, 121, 122, 123, 124, 125, 126, 127, 128, 129, 130, 131, 132, 133, 134, 135, 136, 137, 138, 139, 140, 141, 142, 143, 144, 145, 146, 147, 148, 149, 150, 151, 152, 153, 154, 155, 156, 157, 158, 159, 160, 161, 162, 163, 164, 165, 166, 167, 168, 169, 170, 171, 172, 173, 174, 175, 176, 177, 178, 179, 180, 181, 182, 183, 184, 185, 186, 187, 188, 189, 190, 191, 192, 193, 194, 195, 196, 197, 198, 199, 200, 201, 202, 203, 204, 205, 206, 207, 208, 209, 210, 211, 212, 213, 214, 215, 216, 217, 218, 219, 220, 221, 222, 223, 224, 225, 226, 227, 228, 229, 230, 231, 232, 233, 234, 235, 236, 237, 238, 239, 240, 241, 242, 243, 244, 245, 246, 247, 248, 249, 250, 251, 252, 253, 254, 255, 256, 257, 258, 259, 260, 261, 262, 263, 264, 265, 266, 267, 268, 269, 270, 271, 272, 273, 274, 275],
      "LargestImagePixelValue": [1455, 1450, 1437, 1445, 1442, 1456, 1459, 1448, 1425, 1437, 1456, 1441, 1454, 1478, 1516, 1454, 1460, 1459, 1461, 1463, 1458, 1459, 1451, 1472, 1459, 1458, 1473, 1481, 1465, 1472, 1474, 1452, 1447, 1456, 1471, 1451, 1460, 1478, 1816, 1648, 1464, 1454, 1490, 1488, 1460, 1473, 1472, 1513, 1457, 1472, 1528, 1541, 1440, 1452, 1468, 1478, 1460, 1485, 1502, 1462, 1474, 1789, 1625, 1453, 1467, 1465, 1471, 1474, 1482, 1582, 1480, 1469, 1464, 1463, 1466, 1461, 1461, 1444, 1458, 1474, 1462, 1456, 1459, 1810, 1833, 1467, 1412, 1486, 1473, 1471, 1471, 1459, 1462, 1477, 1464, 1461, 1472, 1472, 1477, 1448, 1456, 1469, 1869, 1892, 1800, 1455, 1461, 2066, 1453, 1443, 1454, 1465, 1464, 1480, 1470, 1469, 1472, 1451, 1459, 1449, 1460, 1469, 1470, 1452, 1472, 1452, 1632, 1501, 1468, 1463, 1455, 1460, 1450, 1447, 1438, 1454, 1450, 1449, 1440, 1450, 1455, 1440, 1439, 1424, 1439, 1451, 1428, 1457, 1438, 1439, 1436, 1449, 1435, 1445, 1431, 1415, 1432, 1433, 1427, 1449, 1455, 1459, 1445, 1444, 1450, 1435, 1442, 1477, 1460, 1435, 1417, 1470, 1447, 1421, 1452, 1456, 1441, 1452, 1590, 1627, 1486, 1548, 1482, 1473, 1481, 1490, 1487, 1509, 1488, 1483, 1473, 1463, 1453, 1477, 1474, 1454, 1476, 1481, 1492, 1487, 1480, 1514, 1493, 1481, 1488, 1470, 1487, 1476, 1487, 1476, 1463, 1468, 1436, 1448, 1475, 1578, 1511, 1607, 1448, 1444, 1449, 1465, 1455, 1472, 1449, 1465, 1442, 1433, 1458, 1447, 1469, 1461, 1453, 1458, 1489, 1470, 1455, 1565, 1451, 1454, 1449, 1430, 1433, 1460, 1589, 1482, 1466, 1458, 1461, 1461, 1463, 1460, 1457, 1491, 1462, 1471, 1468, 1770, 1869, 1461, 1478, 1463, 1457, 1461, 1472, 1453, 1464, 1457, 1478, 1584, 1493, 1473, 1463, 1465, 1461],
      "WindowCenter": [658.0, 656.0, 656.0, 656.0, 656.0, 657.0, 657.0, 658.0, 659.0, 659.0, 659.0, 659.0, 659.0, 659.0, 658.0, 658.0, 657.0, 657.0, 657.0, 657.0, 657.0, 657.0, 657.0, 658.0, 658.0, 658.0, 657.0, 657.0, 657.0, 658.0, 658.0, 659.0, 659.0, 659.0, 659.0, 659.0, 660.0, 659.0, 660.0, 658.0, 657.0, 657.0, 657.0, 657.0, 658.0, 658.0, 658.0, 658.0, 658.0, 658.0, 658.0, 654.0, 658.0, 658.0, 658.0, 658.0, 658.0, 659.0, 659.0, 659.0, 659.0, 659.0, 658.0, 657.0, 658.0, 658.0, 658.0, 658.0, 659.0, 659.0, 657.0, 657.0, 658.0, 658.0, 658.0, 658.0, 658.0, 659.0, 659.0, 659.0, 659.0, 660.0, 659.0, 660.0, 659.0, 655.0, 656.0, 658.0, 657.0, 656.0, 656.0, 657.0, 657.0, 658.0, 658.0, 658.0, 658.0, 658.0, 658.0, 658.0, 659.0, 658.0, 648.0, 638.0, 666.0, 657.0, 656.0, 655.0, 652.0, 651.0, 652.0, 654.0, 655.0, 655.0, 655.0, 656.0, 656.0, 656.0, 658.0, 658.0, 657.0, 657.0, 657.0, 657.0, 657.0, 656.0, 657.0, 656.0, 656.0, 655.0, 655.0, 655.0, 655.0, 655.0, 655.0, 656.0, 656.0, 656.0, 656.0, 656.0, 655.0, 655.0, 655.0, 656.0, 656.0, 656.0, 656.0, 656.0, 656.0, 657.0, 656.0, 656.0, 656.0, 655.0, 654.0, 654.0, 655.0, 655.0, 655.0, 655.0, 655.0, 656.0, 656.0, 656.0, 656.0, 656.0, 656.0, 657.0, 656.0, 655.0, 655.0, 656.0, 655.0, 655.0, 655.0, 655.0, 655.0, 656.0, 645.0, 663.0, 658.0, 658.0, 658.0, 659.0, 660.0, 659.0, 659.0, 659.0, 658.0, 659.0, 658.0, 658.0, 658.0, 659.0, 658.0, 658.0, 659.0, 658.0, 658.0, 657.0, 658.0, 658.0, 658.0, 657.0, 657.0, 657.0, 657.0, 658.0, 658.0, 658.0, 658.0, 659.0, 656.0, 658.0, 658.0, 658.0, 656.0, 654.0, 652.0, 653.0, 655.0, 656.0, 656.0, 657.0, 657.0, 658.0, 658.0, 658.0, 659.0, 659.0, 659.0, 659.0, 659.0, 660.0, 660.0, 659.0, 658.0, 657.0, 657.0, 657.0, 658.0, 658.0, 658.0, 658.0, 658.0, 657.0, 657.0, 656.0, 657.0, 657.0, 657.0, 658.0, 648.0, 657.0, 659.0, 658.0, 656.0, 655.0, 655.0, 654.0, 655.0, 655.0, 655.0, 656.0, 657.0, 657.0, 657.0, 658.0, 658.0, 657.0, 656.0, 656.0, 656.0, 657.0, 655.0],
      "WindowWidth": [1427.0, 1423.0, 1422.0, 1423.0, 1424.0, 1426.0, 1427.0, 1429.0, 1430.0, 1431.0, 1431.0, 1431.0, 1432.0, 1431.0, 1429.0, 1428.0, 1426.0, 1426.0, 1427.0, 1427.0, 1426.0, 1425.0, 1427.0, 1428.0, 1429.0, 1428.0, 1427.0, 1427.0, 1427.0, 1428.0, 1430.0, 1431.0, 1431.0, 1432.0, 1432.0, 1433.0, 1433.0, 1432.0, 1433.0, 1429.0, 1425.0, 1426.0, 1427.0, 1427.0, 1428.0, 1428.0, 1428.0, 1429.0, 1429.0, 1430.0, 1428.0, 1417.0, 1428.0, 1428.0, 1429.0, 1429.0, 1429.0, 1431.0, 1433.0, 1433.0, 1431.0, 1430.0, 1428.0, 1427.0, 1429.0, 1429.0, 1430.0, 1430.0, 1431.0, 1432.0, 1427.0, 1425.0, 1428.0, 1430.0, 1429.0, 1428.0, 1429.0, 1431.0, 1431.0, 1432.0, 1432.0, 1433.0, 1432.0, 1435.0, 1432.0, 1420.0, 1425.0, 1430.0, 1426.0, 1424.0, 1423.0, 1426.0, 1427.0, 1428.0, 1428.0, 1429.0, 1429.0, 1428.0, 1429.0, 1430.0, 1431.0, 1430.0, 1402.0, 1375.0, 1450.0, 1425.0, 1421.0, 1420.0, 1411.0, 1410.0, 1411.0, 1417.0, 1420.0, 1421.0, 1421.0, 1422.0, 1422.0, 1424.0, 1427.0, 1427.0, 1426.0, 1425.0, 1425.0, 1426.0, 1426.0, 1423.0, 1426.0, 1423.0, 1422.0, 1421.0, 1421.0, 1420.0, 1421.0, 1421.0, 1421.0, 1423.0, 1422.0, 1423.0, 1423.0, 1422.0, 1420.0, 1421.0, 1421.0, 1422.0, 1423.0, 1424.0, 1423.0, 1424.0, 1424.0, 1425.0, 1424.0, 1424.0, 1423.0, 1419.0, 1418.0, 1419.0, 1420.0, 1421.0, 1420.0, 1420.0, 1421.0, 1422.0, 1423.0, 1422.0, 1423.0, 1423.0, 1423.0, 1424.0, 1423.0, 1422.0, 1421.0, 1422.0, 1421.0, 1420.0, 1420.0, 1420.0, 1421.0, 1422.0, 1393.0, 1445.0, 1429.0, 1429.0, 1430.0, 1433.0, 1433.0, 1431.0, 1431.0, 1431.0, 1430.0, 1431.0, 1429.0, 1428.0, 1430.0, 1431.0, 1430.0, 1430.0, 1432.0, 1430.0, 1428.0, 1427.0, 1430.0, 1430.0, 1427.0, 1427.0, 1427.0, 1426.0, 1427.0, 1428.0, 1428.0, 1428.0, 1430.0, 1432.0, 1423.0, 1428.0, 1429.0, 1430.0, 1423.0, 1417.0, 1413.0, 1414.0, 1419.0, 1423.0, 1424.0, 1425.0, 1427.0, 1430.0, 1429.0, 1429.0, 1431.0, 1432.0, 1433.0, 1432.0, 1433.0, 1434.0, 1434.0, 1431.0, 1428.0, 1425.0, 1427.0, 1427.0, 1428.0, 1428.0, 1429.0, 1428.0, 1430.0, 1426.0, 1425.0, 1424.0, 1426.0, 1425.0, 1427.0, 1430.0, 1400.0, 1424.0, 1430.0, 1428.0, 1422.0, 1420.0, 1419.0, 1417.0, 1419.0, 1421.0, 1421.0, 1423.0, 1425.0, 1424.0, 1426.0, 1428.0, 1428.0, 1426.0, 1424.0, 1424.0, 1423.0, 1426.0, 1420.0]
    },
    "slices": {}
  }
}