{
  "AcquisitionMatrixPE": 64,
  "AcquisitionNumber": 1,
  "AcquisitionTime": "15:33:33.115000",
  "BandwidthPerPixelPhaseEncode": 31.888,
  "BaseResolution": 64,
  "BodyPartExamined": "HEAD",
  "CoilCombinationMethod": "Sum of Squares",
  "ConsistencyInfo": "N4_VE11C_LATEST_20160120",
  "ConversionSoftware": "dcm2niix",
  "ConversionSoftwareVersion": "v1.0.20211006",
  "DerivedVendorReportedEchoSpacing": 0.000489996,
  "DeviceSerialNumber": "167048",
  "EchoTime": 0.03,
  "EchoTrainLength": 64,
  "EffectiveEchoSpacing": 0.000489996,
  "FlipAngle": 90,
  "ImageOrientationPatientDICOM": [0.995221, -0.0963368, 0.0159779, 0.0975823, 0.974879, -0.200224],
  "ImageType": [
    "ORIGINAL",
    "PRIMARY",
    "M",
    "ND",
    "NORM",
    "MOSAIC"
],
  "ImagingFrequency": 123.261,
  "InPlanePhaseEncodingDirectionDICOM": "COL",
  "InstitutionAddress": "Azinhaga Santa Comba StreetNo,Coimbra,District,PT,3000",
  "InstitutionName": "ICNAS",
  "MRAcquisitionType": "2D",
  "MagneticFieldStrength": 3,
  "Manufacturer": "Siemens",
  "ManufacturersModelName": "Prisma_fit",
  "MatrixCoilMode": "SENSE",
  "Modality": "MR",
  "PartialFourier": 1,
  "PatientPosition": "HFS",
  "PercentPhaseFOV": 100,
  "PercentSampling": 100,
  "PhaseEncodingDirection": "j-",
  "PhaseEncodingSteps": 64,
  "PhaseResolution": 1,
  "PixelBandwidth": 2365,
  "ProcedureStepDescription": "RM_FUNCIONAL",
  "ProtocolName": "rtfmri_neurofeedback_MTLoc",
  "PulseSequenceDetails": "%SiemensSeq%\\ep2d_bold",
  "ReceiveCoilActiveElements": "HE1-4",
  "ReceiveCoilName": "HeadNeck_20",
  "ReconMatrixPE": 64,
  "RepetitionTime": 2,
  "SAR": 0.110108,
  "ScanOptions": "FS",
  "ScanningSequence": "EP",
  "SequenceName": "*epfid2d1_64",
  "SequenceVariant": "SK",
  "SeriesDescription": "rtfmri_neurofeedback_MTLoc",
  "SeriesNumber": 3,
  "ShimSetting": [10161, 2138, 8399, 446, -5, 84, 43, -24],
  "SliceThickness": 3,
  "SliceTiming": [0, 1.02, 0.06, 1.08, 0.12, 1.14, 0.18, 1.2, 0.24, 1.26, 0.3, 1.32, 0.36, 1.38, 0.42, 1.44, 0.48, 1.5, 0.54, 1.56, 0.6, 1.62, 0.66, 1.68, 0.72, 1.74, 0.78, 1.8, 0.84, 1.86, 0.9, 1.92, 0.96],
  "SoftwareVersions": "syngo MR E11",
  "SpacingBetweenSlices": 3,
  "StationName": "MRC35377",
  "TaskName": "loc",
  "TotalReadoutTime": 0.0308698,
  "TxRefAmp": 249.818,
  "dcmmeta_affine": [
    [-3.980884075164795, 0.3903292119503021, -0.011137261055409908, 117.83414459228516],
    [0.3853471875190735, 3.8995161056518555, -0.6024788618087769, -99.94451904296875],
    [0.06391160190105438, 0.8008959889411926, 2.9388625621795654, -65.48595428466797],
    [0.0, 0.0, 0.0, 1.0]
],
  "dcmmeta_reorient_transform": [
    [0.0, -1.0, 0.0, 63.0],
    [1.0, 0.0, 0.0, 0.0],
    [0.0, 0.0, 1.0, 0.0],
    [0.0, 0.0, 0.0, 1.0]
],
  "dcmmeta_shape": [64, 64, 33, 200],
  "dcmmeta_slice_dim": 2,
  "dcmmeta_version": 0.6,
  "global": {
    "const": {
      "AccessionNumber": "0",
      "AcquisitionMatrix": [64, 0, 0, 64],
      "AngioFlag": "N",
      "BitsAllocated": 16,
      "BitsStored": 12,
      "BodyPartExamined": "HEAD",
      "Columns": 384,
      "EchoNumbers": 1,
      "EchoTime": 30.0,
      "EchoTrainLength": 64,
      "FlipAngle": 90.0,
      "HighBit": 11,
      "ImageOrientationPatient": [0.995221, -0.0963368, 0.0159779, 0.0975823, 0.974879, -0.200224],
      "ImagePositionPatient": [-841.819, -707.992, 102.888],
      "ImageType": [
        "ORIGINAL",
        "PRIMARY",
        "M",
        "ND",
        "NORM",
        "MOSAIC"
],
      "ImagedNucleus": "1H",
      "ImagingFrequency": 123.261,
      "InPlanePhaseEncodingDirection": "COL",
      "MRAcquisitionType": "2D",
      "MagneticFieldStrength": 3.0,
      "Manufacturer": "SIEMENS",
      "ManufacturerModelName": "Prisma_fit",
      "Modality": "MR",
      "NumberOfAverages": 1.0,
      "NumberOfFrames": 1,
      "NumberOfPhaseEncodingSteps": 64,
      "PercentPhaseFieldOfView": 100.0,
      "PercentSampling": 100.0,
      "PerformedProcedureStepStartTime": "151042.693000",
      "PhotometricInterpretation": "MONOCHROME2",
      "PixelBandwidth": 2365.0,
      "PixelRepresentation": 0,
      "PixelSpacing": [4.0, 4.0],
      "ProtocolName": "rtfmri_neurofeedback_MTLoc",
      "RepetitionTime": 2000.0,
      "RequestAttributesSequence": [
        {
          "RequestedProcedureID": "941",
          "ScheduledProcedureStepDescription": "RM_FUNCIONAL",
          "ScheduledProcedureStepID": "1"}
],
      "Rows": 384,
      "SAR": 0.110108,
      "SamplesPerPixel": 1,
      "ScanOptions": "FS",
      "ScanningSequence": "EP",
      "SequenceName": "*epfid2d1_64",
      "SequenceVariant": "SK",
      "SeriesDescription": "rtfmri_neurofeedback_MTLoc",
      "SeriesNumber": 3,
      "SeriesTime": "153335.694000",
      "SliceLocation": -44.5171,
      "SliceThickness": 3.0,
      "SmallestImagePixelValue": 0,
      "SoftwareVersions": "syngo MR E11",
      "SpacingBetweenSlices": 3.0,
      "SpecificCharacterSet": "ISO_IR 100",
      "StudyID": "941",
      "StudyTime": "151041.253000",
      "TransmitCoilName": "Body",
      "VariableFlipAngleFlag": "N",
      "WindowCenterWidthExplanation": "Algo1",
      "dBdt": 0.0},
    "slices": {}
  },
  "time": {
    "samples": {
      "AcquisitionNumber": [1, 2, 3, 4, 5, 6, 7, 8, 9, 10, 11, 12, 13, 14, 15, 16, 17, 18, 19, 20, 21, 22, 23, 24, 25, 26, 27, 28, 29, 30, 31, 32, 33, 34, 35, 36, 37, 38, 39, 40, 41, 42, 43, 44, 45, 46, 47, 48, 49, 50, 51, 52, 53, 54, 55, 56, 57, 58, 59, 60, 61, 62, 63, 64, 65, 66, 67, 68, 69, 70, 71, 72, 73, 74, 75, 76, 77, 78, 79, 80, 81, 82, 83, 84, 85, 86, 87, 88, 89, 90, 91, 92, 93, 94, 95, 96, 97, 98, 99, 100, 101, 102, 103, 104, 105, 106, 107, 108, 109, 110, 111, 112, 113, 114, 115, 116, 117, 118, 119, 120, 121, 122, 123, 124, 125, 126, 127, 128, 129, 130, 131, 132, 133, 134, 135, 136, 137, 138, 139, 140, 141, 142, 143, 144, 145, 146, 147, 148, 149, 150, 151, 152, 153, 154, 155, 156, 157, 158, 159, 160, 161, 162, 163, 164, 165, 166, 167, 168, 169, 170, 171, 172, 173, 174, 175, 176, 177, 178, 179, 180, 181, 182, 183, 184, 185, 186, 187, 188, 189, 190, 191, 192, 193, 194, 195, 196, 197, 198, 199, 200],
      "AcquisitionTime": ["153333.115000", "153335.115000", "153337.115000", "153339.115000", "153341.115000", "153343.115000", "153345.115000", "153347.115000", "153349.115000", "153351.115000", "153353.115000", "153355.115000", "153357.115000", "153359.115000", "153401.115000", "153403.115000", "153405.115000", "153407.115000", "153409.115000", "153411.115000", "153413.115000", "153415.115000", "153417.115000", "153419.115000", "153421.115000", "153423.115000", "153425.115000", "153427.115000", "153429.115000", "153431.115000", "153433.115000", "153435.115000", "153437.115000", "153439.115000", "153441.115000", "153443.115000", "153445.115000", "153447.115000", "153449.115000", "153451.115000", "153453.115000", "153455.115000", "153457.115000", "153459.115000", "153501.115000", "153503.115000", "153505.115000", "153507.115000", "153509.115000", "153511.115000", "153513.115000", "153515.115000", "153517.115000", "153519.115000", "153521.115000", "153523.115000", "153525.115000", "153527.115000", "153529.115000", "153531.115000", "153533.115000", "153535.115000", "153537.115000", "153539.115000", "153541.115000", "153543.115000", "153545.115000", "153547.115000", "153549.115000", "153551.115000", "153553.115000", "153555.115000", "153557.115000", "153559.115000", "153601.115000", "153603.115000", "153605.115000", "153607.115000", "153609.115000", "153611.115000", "153613.115000", "153615.115000", "153617.115000", "153619.115000", "153621.115000", "153623.115000", "153625.115000", "153627.115000", "153629.115000", "153631.115000", "153633.115000", "153635.115000", "153637.115000", "153639.115000", "153641.115000", "153643.115000", "153645.115000", "153647.115000", "153649.115000", "153651.115000", "153653.115000", "153655.115000", "153657.115000", "153659.115000", "153701.115000", "153703.115000", "153705.115000", "153707.115000", "153709.115000", "153711.115000", "153713.115000", "153715.115000", "153717.115000", "153719.115000", "153721.115000", "153723.115000", "153725.115000", "153727.115000", "153729.115000", "153731.115000", "153733.115000", "153735.115000", "153737.115000", "153739.115000", "153741.115000", "153743.115000", "153745.115000", "153747.115000", "153749.115000", "153751.115000", "153753.115000", "153755.115000", "153757.115000", "153759.115000", "153801.115000", "153803.115000", "153805.115000", "153807.115000", "153809.115000", "153811.115000", "153813.115000", "153815.115000", "153817.115000", "153819.115000", "153821.115000", "153823.115000", "153825.115000", "153827.115000", "153829.115000", "153831.115000", "153833.115000", "153835.115000", "153837.115000", "153839.115000", "153841.115000", "153843.115000", "153845.115000", "153847.115000", "153849.115000", "153851.115000", "153853.115000", "153855.115000", "153857.115000", "153859.115000", "153901.115000", "153903.115000", "153905.115000", "153907.115000", "153909.115000", "153911.115000", "153913.115000", "153915.115000", "153917.115000", "153919.115000", "153921.115000", "153923.115000", "153925.115000", "153927.115000", "153929.115000", "153931.115000", "153933.115000", "153935.115000", "153937.115000", "153939.115000", "153941.115000", "153943.115000", "153945.115000", "153947.115000", "153949.115000", "153951.115000", "153953.115000", "153955.115000", "153957.115000", "153959.115000", "154001.115000", "154003.115000", "154005.115000", "154007.115000", "154009.115000", "154011.115000"],
      "ContentTime": ["153335.697000", "153337.693000", "153339.693000", "153341.694000", "153343.694000", "153345.693000", "153347.693000", "153349.693000", "153351.693000", "153353.693000", "153355.693000", "153357.693000", "153359.694000", "153401.694000", "153403.693000", "153405.693000", "153407.693000", "153409.693000", "153411.693000", "153413.693000", "153415.693000", "153417.694000", "153419.694000", "153421.693000", "153423.693000", "153425.693000", "153427.693000", "153429.693000", "153431.693000", "153433.694000", "153435.694000", "153437.693000", "153439.693000", "153441.693000", "153443.693000", "153445.693000", "153447.693000", "153449.693000", "153451.694000", "153453.694000", "153455.693000", "153457.693000", "153459.693000", "153501.693000", "153503.693000", "153505.693000", "153507.693000", "153509.694000", "153511.694000", "153513.693000", "153515.693000", "153517.693000", "153519.693000", "153521.693000", "153523.693000", "153525.693000", "153527.694000", "153529.694000", "153531.693000", "153533.693000", "153535.693000", "153537.693000", "153539.693000", "153541.693000", "153543.694000", "153545.694000", "153547.693000", "153549.693000", "153551.693000", "153553.693000", "153555.693000", "153557.693000", "153559.693000", "153601.694000", "153603.694000", "153605.693000", "153607.693000", "153609.693000", "153611.693000", "153613.693000", "153615.693000", "153617.693000", "153619.694000", "153621.694000", "153623.693000", "153625.693000", "153627.693000", "153629.693000", "153631.693000", "153633.693000", "153635.693000", "153637.694000", "153639.694000", "153641.693000", "153643.693000", "153645.693000", "153647.693000", "153649.693000", "153651.693000", "153653.694000", "153655.694000", "153657.693000", "153659.693000", "153701.693000", "153703.693000", "153705.693000", "153707.693000", "153709.693000", "153711.694000", "153713.694000", "153715.693000", "153717.693000", "153719.693000", "153721.704000", "153723.693000", "153725.693000", "153727.693000", "153729.694000", "153731.694000", "153733.693000", "153735.693000", "153737.693000", "153739.693000", "153741.693000", "153743.696000", "153745.693000", "153747.694000", "153749.694000", "153751.693000", "153753.693000", "153755.693000", "153757.693000", "153759.693000", "153801.693000", "153803.694000", "153805.694000", "153807.693000", "153809.693000", "153811.693000", "153813.693000", "153815.693000", "153817.693000", "153819.693000", "153821.694000", "153823.694000", "153825.693000", "153827.693000", "153829.693000", "153831.693000", "153833.693000", "153835.693000", "153837.693000", "153839.694000", "153841.694000", "153843.693000", "153845.693000", "153847.693000", "153849.693000", "153851.693000", "153853.693000", "153855.693000", "153857.694000", "153859.694000", "153901.693000", "153903.693000", "153905.693000", "153907.693000", "153909.693000", "153911.693000", "153913.694000", "153915.694000", "153917.693000", "153919.693000", "153921.693000", "153923.693000", "153925.693000", "153927.693000", "153929.693000", "153931.694000", "153933.694000", "153935.693000", "153937.693000", "153939.693000", "153941.693000", "153943.693000", "153945.693000", "153947.693000", "153949.694000", "153951.694000", "153953.693000", "153955.693000", "153957.693000", "153959.693000", "154001.693000", "154003.693000", "154005.693000", "154007.694000", "154009.694000", "154011.693000", "154013.432000"],
      "InstanceCreationTime": ["153335.697000", "153337.693000", "153339.693000", "153341.694000", "153343.694000", "153345.693000", "153347.693000", "153349.693000", "153351.693000", "153353.693000", "153355.693000", "153357.693000", "153359.694000", "153401.694000", "153403.693000", "153405.693000", "153407.693000", "153409.693000", "153411.693000", "153413.693000", "153415.693000", "153417.694000", "153419.694000", "153421.693000", "153423.693000", "153425.693000", "153427.693000", "153429.693000", "153431.693000", "153433.694000", "153435.694000", "153437.693000", "153439.693000", "153441.693000", "153443.693000", "153445.693000", "153447.693000", "153449.693000", "153451.694000", "153453.694000", "153455.693000", "153457.693000", "153459.693000", "153501.693000", "153503.693000", "153505.693000", "153507.693000", "153509.694000", "153511.694000", "153513.693000", "153515.693000", "153517.693000", "153519.693000", "153521.693000", "153523.693000", "153525.693000", "153527.694000", "153529.694000", "153531.693000", "153533.693000", "153535.693000", "153537.693000", "153539.693000", "153541.693000", "153543.694000", "153545.694000", "153547.693000", "153549.693000", "153551.693000", "153553.693000", "153555.693000", "153557.693000", "153559.693000", "153601.694000", "153603.694000", "153605.693000", "153607.693000", "153609.693000", "153611.693000", "153613.693000", "153615.693000", "153617.693000", "153619.694000", "153621.694000", "153623.693000", "153625.693000", "153627.693000", "153629.693000", "153631.693000", "153633.693000", "153635.693000", "153637.694000", "153639.694000", "153641.693000", "153643.693000", "153645.693000", "153647.693000", "153649.693000", "153651.693000", "153653.694000", "153655.694000", "153657.693000", "153659.693000", "153701.693000", "153703.693000", "153705.693000", "153707.693000", "153709.693000", "153711.694000", "153713.694000", "153715.693000", "153717.693000", "153719.693000", "153721.704000", "153723.693000", "153725.693000", "153727.693000", "153729.694000", "153731.694000", "153733.693000", "153735.693000", "153737.693000", "153739.693000", "153741.693000", "153743.696000", "153745.693000", "153747.694000", "153749.694000", "153751.693000", "153753.693000", "153755.693000", "153757.693000", "153759.693000", "153801.693000", "153803.694000", "153805.694000", "153807.693000", "153809.693000", "153811.693000", "153813.693000", "153815.693000", "153817.693000", "153819.693000", "153821.694000", "153823.694000", "153825.693000", "153827.693000", "153829.693000", "153831.693000", "153833.693000", "153835.693000", "153837.693000", "153839.694000", "153841.694000", "153843.693000", "153845.693000", "153847.693000", "153849.693000", "153851.693000", "153853.693000", "153855.693000", "153857.694000", "153859.694000", "153901.693000", "153903.693000", "153905.693000", "153907.693000", "153909.693000", "153911.693000", "153913.694000", "153915.694000", "153917.693000", "153919.693000", "153921.693000", "153923.693000", "153925.693000", "153927.693000", "153929.693000", "153931.694000", "153933.694000", "153935.693000", "153937.693000", "153939.693000", "153941.693000", "153943.693000", "153945.693000", "153947.693000", "153949.694000", "153951.694000", "153953.693000", "153955.693000", "153957.693000", "153959.693000", "154001.693000", "154003.693000", "154005.693000", "154007.694000", "154009.694000", "154011.693000", "154013.432000"],
      "InstanceNumber": [1, 2, 3, 4, 5, 6, 7, 8, 9, 10, 11, 12, 13, 14, 15, 16, 17, 18, 19, 20, 21, 22, 23, 24, 25, 26, 27, 28, 29, 30, 31, 32, 33, 34, 35, 36, 37, 38, 39, 40, 41, 42, 43, 44, 45, 46, 47, 48, 49, 50, 51, 52, 53, 54, 55, 56, 57, 58, 59, 60, 61, 62, 63, 64, 65, 66, 67, 68, 69, 70, 71, 72, 73, 74, 75, 76, 77, 78, 79, 80, 81, 82, 83, 84, 85, 86, 87, 88, 89, 90, 91, 92, 93, 94, 95, 96, 97, 98, 99, 100, 101, 102, 103, 104, 105, 106, 107, 108, 109, 110, 111, 112, 113, 114, 115, 116, 117, 118, 119, 120, 121, 122, 123, 124, 125, 126, 127, 128, 129, 130, 131, 132, 133, 134, 135, 136, 137, 138, 139, 140, 141, 142, 143, 144, 145, 146, 147, 148, 149, 150, 151, 152, 153, 154, 155, 156, 157, 158, 159, 160, 161, 162, 163, 164, 165, 166, 167, 168, 169, 170, 171, 172, 173, 174, 175, 176, 177, 178, 179, 180, 181, 182, 183, 184, 185, 186, 187, 188, 189, 190, 191, 192, 193, 194, 195, 196, 197, 198, 199, 200],
      "LargestImagePixelValue": [1498, 1510, 1453, 1471, 1722, 1653, 1511, 1465, 2076, 1442, 1471, 1421, 2041, 1428, 1463, 1479, 1691, 1465, 1473, 1468, 1829, 1501, 1550, 1590, 1446, 1446, 1460, 1458, 1466, 1552, 1458, 1457, 1441, 1498, 1471, 1591, 1606, 1589, 2224, 1777, 1573, 1509, 1637, 1471, 1422, 1483, 1470, 1687, 1458, 1444, 1519, 1487, 1470, 1833, 1555, 1570, 1594, 1478, 1449, 1595, 1483, 1453, 1940, 1541, 1823, 1523, 1840, 1434, 1440, 1551, 1475, 1422, 1522, 1497, 1461, 1461, 1586, 1472, 1427, 1538, 1457, 1453, 1852, 1442, 1577, 1857, 1564, 1929, 1662, 2095, 1549, 1440, 1553, 1468, 1420, 1591, 1437, 1498, 1430, 1484, 1436, 1573, 1439, 1866, 1457, 1615, 1440, 1701, 2180, 1607, 1414, 1362, 1387, 1595, 1432, 1424, 1920, 1529, 1780, 1423, 1457, 1430, 1421, 1446, 1435, 1624, 1431, 1491, 1428, 1545, 1426, 1480, 1437, 1919, 1573, 2050, 1456, 1529, 1423, 1536, 1442, 1550, 1425, 1433, 1412, 1464, 1414, 1641, 1430, 1429, 1630, 1421, 1556, 1418, 1558, 1423, 1423, 1627, 1428, 1639, 1422, 1618, 1417, 1638, 1737, 1757, 2077, 1619, 1494, 1452, 1423, 1559, 1419, 1558, 1406, 1424, 1428, 1439, 1525, 1447, 1877, 1492, 1682, 1459, 1620, 1675, 1540, 1419, 1612, 1425, 1525, 1447, 1431, 1557, 1422, 1663, 1449, 1515, 1433, 1467],
      "WindowCenter": [652.0, 652.0, 653.0, 652.0, 653.0, 653.0, 652.0, 651.0, 653.0, 651.0, 652.0, 651.0, 653.0, 651.0, 651.0, 651.0, 653.0, 652.0, 652.0, 652.0, 653.0, 651.0, 651.0, 652.0, 651.0, 652.0, 652.0, 652.0, 652.0, 653.0, 653.0, 653.0, 653.0, 654.0, 653.0, 655.0, 654.0, 654.0, 654.0, 652.0, 651.0, 650.0, 651.0, 651.0, 652.0, 653.0, 652.0, 653.0, 653.0, 653.0, 654.0, 654.0, 654.0, 655.0, 653.0, 653.0, 654.0, 653.0, 652.0, 653.0, 654.0, 654.0, 655.0, 652.0, 653.0, 651.0, 652.0, 651.0, 652.0, 653.0, 653.0, 653.0, 653.0, 653.0, 653.0, 653.0, 654.0, 654.0, 654.0, 655.0, 654.0, 654.0, 655.0, 653.0, 653.0, 653.0, 650.0, 651.0, 648.0, 648.0, 646.0, 647.0, 650.0, 651.0, 651.0, 653.0, 652.0, 653.0, 654.0, 654.0, 654.0, 654.0, 653.0, 654.0, 652.0, 653.0, 652.0, 648.0, 648.0, 657.0, 653.0, 654.0, 645.0, 658.0, 655.0, 655.0, 655.0, 653.0, 654.0, 653.0, 653.0, 653.0, 653.0, 653.0, 653.0, 654.0, 653.0, 654.0, 654.0, 655.0, 654.0, 655.0, 654.0, 654.0, 652.0, 652.0, 650.0, 651.0, 652.0, 653.0, 652.0, 652.0, 652.0, 653.0, 652.0, 653.0, 654.0, 654.0, 653.0, 652.0, 654.0, 654.0, 654.0, 653.0, 654.0, 653.0, 653.0, 654.0, 652.0, 653.0, 653.0, 652.0, 653.0, 653.0, 652.0, 650.0, 649.0, 647.0, 649.0, 650.0, 651.0, 652.0, 652.0, 653.0, 653.0, 654.0, 654.0, 655.0, 656.0, 654.0, 655.0, 652.0, 653.0, 651.0, 651.0, 651.0, 650.0, 649.0, 652.0, 652.0, 652.0, 652.0, 653.0, 654.0, 652.0, 653.0, 652.0, 653.0, 653.0, 653.0],
      "WindowWidth": [1409.0, 1410.0, 1411.0, 1410.0, 1411.0, 1411.0, 1408.0, 1405.0, 1411.0, 1406.0, 1408.0, 1407.0, 1412.0, 1407.0, 1407.0, 1407.0, 1411.0, 1410.0, 1410.0, 1409.0, 1411.0, 1405.0, 1406.0, 1408.0, 1407.0, 1408.0, 1410.0, 1410.0, 1411.0, 1412.0, 1411.0, 1413.0, 1413.0, 1413.0, 1412.0, 1416.0, 1415.0, 1413.0, 1414.0, 1410.0, 1405.0, 1404.0, 1408.0, 1407.0, 1409.0, 1411.0, 1410.0, 1413.0, 1412.0, 1412.0, 1415.0, 1414.0, 1414.0, 1417.0, 1412.0, 1412.0, 1414.0, 1412.0, 1410.0, 1413.0, 1415.0, 1415.0, 1416.0, 1408.0, 1411.0, 1407.0, 1410.0, 1407.0, 1409.0, 1412.0, 1413.0, 1412.0, 1411.0, 1411.0, 1413.0, 1413.0, 1415.0, 1415.0, 1414.0, 1417.0, 1416.0, 1414.0, 1417.0, 1412.0, 1412.0, 1412.0, 1405.0, 1405.0, 1397.0, 1398.0, 1392.0, 1396.0, 1403.0, 1406.0, 1407.0, 1411.0, 1410.0, 1413.0, 1414.0, 1415.0, 1414.0, 1415.0, 1411.0, 1414.0, 1408.0, 1411.0, 1408.0, 1399.0, 1401.0, 1424.0, 1413.0, 1415.0, 1390.0, 1426.0, 1419.0, 1417.0, 1418.0, 1411.0, 1415.0, 1412.0, 1413.0, 1413.0, 1413.0, 1414.0, 1414.0, 1414.0, 1413.0, 1414.0, 1415.0, 1417.0, 1414.0, 1418.0, 1414.0, 1415.0, 1408.0, 1410.0, 1403.0, 1407.0, 1409.0, 1412.0, 1409.0, 1410.0, 1409.0, 1412.0, 1411.0, 1412.0, 1414.0, 1415.0, 1411.0, 1411.0, 1414.0, 1415.0, 1416.0, 1413.0, 1415.0, 1413.0, 1413.0, 1415.0, 1410.0, 1412.0, 1412.0, 1410.0, 1412.0, 1413.0, 1410.0, 1402.0, 1401.0, 1396.0, 1400.0, 1404.0, 1407.0, 1409.0, 1409.0, 1412.0, 1412.0, 1414.0, 1416.0, 1417.0, 1419.0, 1416.0, 1418.0, 1410.0, 1413.0, 1407.0, 1408.0, 1407.0, 1403.0, 1402.0, 1408.0, 1409.0, 1411.0, 1410.0, 1412.0, 1414.0, 1410.0, 1412.0, 1410.0, 1412.0, 1411.0, 1411.0]
    },
    "slices": {}
  }
}