{
  "AcquisitionMatrixPE": 64,
  "AcquisitionNumber": 1,
  "AcquisitionTime": "17:32:15.927500",
  "BandwidthPerPixelPhaseEncode": 31.888,
  "BaseResolution": 64,
  "BodyPartExamined": "HEAD",
  "CoilCombinationMethod": "Sum of Squares",
  "ConsistencyInfo": "N4_VE11C_LATEST_20160120",
  "ConversionSoftware": "dcm2niix",
  "ConversionSoftwareVersion": "v1.0.20211006",
  "DerivedVendorReportedEchoSpacing": 0.000489996,
  "DeviceSerialNumber": "167048",
  "EchoTime": 0.03,
  "EchoTrainLength": 64,
  "EffectiveEchoSpacing": 0.000489996,
  "FlipAngle": 90,
  "ImageOrientationPatientDICOM": [0.999663, 0.00582473, 0.0252876, -0.00174481, 0.987365, -0.158453],
  "ImageType": [
    "ORIGINAL",
    "PRIMARY",
    "M",
    "ND",
    "NORM",
    "MOSAIC"
],
  "ImagingFrequency": 123.261,
  "InPlanePhaseEncodingDirectionDICOM": "COL",
  "InstitutionAddress": "Azinhaga Santa Comba StreetNo,Coimbra,District,PT,3000",
  "InstitutionName": "ICNAS",
  "MRAcquisitionType": "2D",
  "MagneticFieldStrength": 3,
  "Manufacturer": "Siemens",
  "ManufacturersModelName": "Prisma_fit",
  "MatrixCoilMode": "SENSE",
  "Modality": "MR",
  "PartialFourier": 1,
  "PatientPosition": "HFS",
  "PercentPhaseFOV": 100,
  "PercentSampling": 100,
  "PhaseEncodingDirection": "j-",
  "PhaseEncodingSteps": 64,
  "PhaseResolution": 1,
  "PixelBandwidth": 2365,
  "ProcedureStepDescription": "RM_FUNCIONAL",
  "ProtocolName": "rtfmri_neurofeedback_MTRun3",
  "PulseSequenceDetails": "%SiemensSeq%\\ep2d_bold",
  "ReceiveCoilActiveElements": "HE1-4",
  "ReceiveCoilName": "HeadNeck_20",
  "ReconMatrixPE": 64,
  "RepetitionTime": 2,
  "SAR": 0.144446,
  "ScanOptions": "FS",
  "ScanningSequence": "EP",
  "SequenceName": "*epfid2d1_64",
  "SequenceVariant": "SK",
  "SeriesDescription": "rtfmri_neurofeedback_MTRun3",
  "SeriesNumber": 8,
  "ShimSetting": [10174, 2139, 8362, 176, -26, 1, 36, -22],
  "SliceThickness": 3,
  "SliceTiming": [0, 1.02, 0.06, 1.08, 0.12, 1.14, 0.18, 1.2, 0.24, 1.26, 0.3, 1.32, 0.36, 1.38, 0.42, 1.44, 0.48, 1.5, 0.54, 1.56, 0.6, 1.62, 0.66, 1.68, 0.72, 1.74, 0.78, 1.8, 0.84, 1.86, 0.9, 1.92, 0.96],
  "SoftwareVersions": "syngo MR E11",
  "SpacingBetweenSlices": 3,
  "StationName": "MRC35377",
  "TaskName": "nf",
  "TotalReadoutTime": 0.0308698,
  "TxRefAmp": 299.291,
  "dcmmeta_affine": [
    [-3.9986519813537598, -0.006979240104556084, 0.07767311483621597, 125.68305206298828],
    [-0.023298919200897217, 3.949460029602051, -0.4750664234161377, -96.3434066772461],
    [0.10115040093660355, 0.6338120102882385, 2.961127281188965, -76.83560943603516],
    [0.0, 0.0, 0.0, 1.0]
],
  "dcmmeta_reorient_transform": [
    [0.0, -1.0, 0.0, 63.0],
    [1.0, 0.0, 0.0, 0.0],
    [0.0, 0.0, 1.0, 0.0],
    [0.0, 0.0, 0.0, 1.0]
],
  "dcmmeta_shape": [64, 64, 33, 275],
  "dcmmeta_slice_dim": 2,
  "dcmmeta_version": 0.6,
  "global": {
    "const": {
      "AccessionNumber": "0",
      "AcquisitionMatrix": [64, 0, 0, 64],
      "AngioFlag": "N",
      "BitsAllocated": 16,
      "BitsStored": 12,
      "BodyPartExamined": "HEAD",
      "Columns": 384,
      "EchoNumbers": 1,
      "EchoTime": 30.0,
      "EchoTrainLength": 64,
      "FlipAngle": 90.0,
      "HighBit": 11,
      "ImageOrientationPatient": [0.999663, 0.00582473, 0.0252876, -0.00174481, 0.987365, -0.158453],
      "ImagePositionPatient": [-763.911, -788.114, 48.3204],
      "ImageType": [
        "ORIGINAL",
        "PRIMARY",
        "M",
        "ND",
        "NORM",
        "MOSAIC"
],
      "ImagedNucleus": "1H",
      "ImagingFrequency": 123.261,
      "InPlanePhaseEncodingDirection": "COL",
      "MRAcquisitionType": "2D",
      "MagneticFieldStrength": 3.0,
      "Manufacturer": "SIEMENS",
      "ManufacturerModelName": "Prisma_fit",
      "Modality": "MR",
      "NumberOfAverages": 1.0,
      "NumberOfFrames": 1,
      "NumberOfPhaseEncodingSteps": 64,
      "PercentPhaseFieldOfView": 100.0,
      "PercentSampling": 100.0,
      "PerformedProcedureStepStartTime": "162212.255000",
      "PhotometricInterpretation": "MONOCHROME2",
      "PixelBandwidth": 2365.0,
      "PixelRepresentation": 0,
      "PixelSpacing": [4.0, 4.0],
      "ProtocolName": "rtfmri_neurofeedback_MTRun3",
      "RepetitionTime": 2000.0,
      "RequestAttributesSequence": [
        {
          "RequestedProcedureID": "1124",
          "ScheduledProcedureStepDescription": "RM_FUNCIONAL",
          "ScheduledProcedureStepID": "1"}
],
      "Rows": 384,
      "SAR": 0.144446,
      "SamplesPerPixel": 1,
      "ScanOptions": "FS",
      "ScanningSequence": "EP",
      "SequenceName": "*epfid2d1_64",
      "SequenceVariant": "SK",
      "SeriesDescription": "rtfmri_neurofeedback_MTRun3",
      "SeriesNumber": 8,
      "SeriesTime": "173218.885000",
      "SliceLocation": -57.3297,
      "SliceThickness": 3.0,
      "SmallestImagePixelValue": 0,
      "SoftwareVersions": "syngo MR E11",
      "SpacingBetweenSlices": 3.0,
      "SpecificCharacterSet": "ISO_IR 100",
      "StudyID": "1124",
      "StudyTime": "162210.555000",
      "TransmitCoilName": "Body",
      "VariableFlipAngleFlag": "N",
      "WindowCenterWidthExplanation": "Algo1",
      "dBdt": 0.0},
    "slices": {}
  },
  "time": {
    "samples": {
      "AcquisitionNumber": [1, 2, 3, 4, 5, 6, 7, 8, 9, 10, 11, 12, 13, 14, 15, 16, 17, 18, 19, 20, 21, 22, 23, 24, 25, 26, 27, 28, 29, 30, 31, 32, 33, 34, 35, 36, 37, 38, 39, 40, 41, 42, 43, 44, 45, 46, 47, 48, 49, 50, 51, 52, 53, 54, 55, 56, 57, 58, 59, 60, 61, 62, 63, 64, 65, 66, 67, 68, 69, 70, 71, 72, 73, 74, 75, 76, 77, 78, 79, 80, 81, 82, 83, 84, 85, 86, 87, 88, 89, 90, 91, 92, 93, 94, 95, 96, 97, 98, 99, 100, 101, 102, 103, 104, 105, 106, 107, 108, 109, 110, 111, 112, 113, 114, 115, 116, 117, 118, 119, 120, 121, 122, 123, 124, 125, 126, 127, 128, 129, 130, 131, 132, 133, 134, 135, 136, 137, 138, 139, 140, 141, 142, 143, 144, 145, 146, 147, 148, 149, 150, 151, 152, 153, 154, 155, 156, 157, 158, 159, 160, 161, 162, 163, 164, 165, 166, 167, 168, 169, 170, 171, 172, 173, 174, 175, 176, 177, 178, 179, 180, 181, 182, 183, 184, 185, 186, 187, 188, 189, 190, 191, 192, 193, 194, 195, 196, 197, 198, 199, 200, 201, 202, 203, 204, 205, 206, 207, 208, 209, 210, 211, 212, 213, 214, 215, 216, 217, 218, 219, 220, 221, 222, 223, 224, 225, 226, 227, 228, 229, 230, 231, 232, 233, 234, 235, 236, 237, 238, 239, 240, 241, 242, 243, 244, 245, 246, 247, 248, 249, 250, 251, 252, 253, 254, 255, 256, 257, 258, 259, 260, 261, 262, 263, 264, 265, 266, 267, 268, 269, 270, 271, 272, 273, 274, 275],
      "AcquisitionTime": ["173215.927500", "173217.927500", "173219.927500", "173221.927500", "173223.927500", "173225.927500", "173227.927500", "173229.927500", "173231.927500", "173233.927500", "173235.927500", "173237.927500", "173239.927500", "173241.927500", "173243.927500", "173245.927500", "173247.927500", "173249.927500", "173251.927500", "173253.927500", "173255.927500", "173257.927500", "173259.927500", "173301.927500", "173303.927500", "173305.927500", "173307.927500", "173309.927500", "173311.927500", "173313.927500", "173315.927500", "173317.927500", "173319.927500", "173321.927500", "173323.927500", "173325.927500", "173327.927500", "173329.927500", "173331.927500", "173333.927500", "173335.927500", "173337.927500", "173339.927500", "173341.927500", "173343.927500", "173345.927500", "173347.927500", "173349.927500", "173351.927500", "173353.927500", "173355.927500", "173357.927500", "173359.927500", "173401.927500", "173403.927500", "173405.927500", "173407.927500", "173409.927500", "173411.927500", "173413.927500", "173415.927500", "173417.927500", "173419.927500", "173421.927500", "173423.927500", "173425.927500", "173427.927500", "173429.927500", "173431.927500", "173433.927500", "173435.927500", "173437.927500", "173439.927500", "173441.927500", "173443.927500", "173445.927500", "173447.927500", "173449.927500", "173451.927500", "173453.927500", "173455.927500", "173457.927500", "173459.927500", "173501.927500", "173503.927500", "173505.927500", "173507.927500", "173509.927500", "173511.927500", "173513.927500", "173515.927500", "173517.927500", "173519.927500", "173521.927500", "173523.927500", "173525.927500", "173527.927500", "173529.927500", "173531.927500", "173533.927500", "173535.927500", "173537.927500", "173539.927500", "173541.927500", "173543.927500", "173545.927500", "173547.927500", "173549.927500", "173551.927500", "173553.927500", "173555.927500", "173557.927500", "173559.927500", "173601.927500", "173603.927500", "173605.927500", "173607.927500", "173609.927500", "173611.927500", "173613.927500", "173615.927500", "173617.927500", "173619.927500", "173621.927500", "173623.927500", "173625.927500", "173627.927500", "173629.927500", "173631.927500", "173633.927500", "173635.927500", "173637.927500", "173639.927500", "173641.927500", "173643.927500", "173645.927500", "173647.927500", "173649.927500", "173651.927500", "173653.927500", "173655.927500", "173657.927500", "173659.927500", "173701.927500", "173703.927500", "173705.927500", "173707.927500", "173709.927500", "173711.927500", "173713.927500", "173715.927500", "173717.927500", "173719.927500", "173721.927500", "173723.927500", "173725.927500", "173727.927500", "173729.927500", "173731.927500", "173733.927500", "173735.927500", "173737.927500", "173739.927500", "173741.927500", "173743.927500", "173745.927500", "173747.927500", "173749.927500", "173751.927500", "173753.927500", "173755.927500", "173757.927500", "173759.927500", "173801.927500", "173803.927500", "173805.927500", "173807.927500", "173809.927500", "173811.927500", "173813.927500", "173815.927500", "173817.927500", "173819.927500", "173821.927500", "173823.927500", "173825.927500", "173827.927500", "173829.927500", "173831.927500", "173833.927500", "173835.927500", "173837.927500", "173839.927500", "173841.927500", "173843.927500", "173845.927500", "173847.927500", "173849.927500", "173851.927500", "173853.927500", "173855.927500", "173857.927500", "173859.927500", "173901.927500", "173903.927500", "173905.927500", "173907.927500", "173909.927500", "173911.927500", "173913.927500", "173915.927500", "173917.927500", "173919.927500", "173921.927500", "173923.927500", "173925.927500", "173927.927500", "173929.927500", "173931.927500", "173933.927500", "173935.927500", "173937.927500", "173939.927500", "173941.927500", "173943.927500", "173945.927500", "173947.927500", "173949.927500", "173951.927500", "173953.927500", "173955.927500", "173957.927500", "173959.927500", "174001.927500", "174003.927500", "174005.927500", "174007.927500", "174009.927500", "174011.927500", "174013.927500", "174015.927500", "174017.927500", "174019.927500", "174021.927500", "174023.927500", "174025.927500", "174027.927500", "174029.927500", "174031.927500", "174033.927500", "174035.927500", "174037.927500", "174039.927500", "174041.927500", "174043.927500", "174045.927500", "174047.927500", "174049.927500", "174051.927500", "174053.927500", "174055.927500", "174057.927500", "174059.927500", "174101.927500", "174103.927500", "174105.927500", "174107.927500", "174109.927500", "174111.927500", "174113.927500", "174115.927500", "174117.927500", "174119.927500", "174121.927500", "174123.927500"],
      "ContentTime": ["173218.889000", "173220.884000", "173222.884000", "173224.884000", "173226.884000", "173228.883000", "173230.884000", "173232.884000", "173234.884000", "173236.884000", "173238.884000", "173240.884000", "173242.884000", "173244.884000", "173246.884000", "173248.884000", "173250.884000", "173252.884000", "173254.884000", "173256.884000", "173258.884000", "173300.884000", "173302.884000", "173304.884000", "173306.884000", "173308.884000", "173310.884000", "173312.884000", "173314.884000", "173316.884000", "173318.884000", "173320.883000", "173322.884000", "173324.884000", "173326.884000", "173328.884000", "173330.884000", "173332.884000", "173334.884000", "173336.884000", "173338.883000", "173340.884000", "173342.884000", "173344.884000", "173346.884000", "173348.884000", "173350.884000", "173352.884000", "173354.884000", "173356.884000", "173358.884000", "173400.884000", "173402.884000", "173404.884000", "173406.884000", "173408.884000", "173410.884000", "173412.884000", "173414.884000", "173416.884000", "173418.884000", "173420.884000", "173422.884000", "173424.884000", "173426.884000", "173428.884000", "173430.883000", "173432.884000", "173434.884000", "173436.884000", "173438.884000", "173440.884000", "173442.884000", "173444.884000", "173446.884000", "173448.883000", "173450.884000", "173452.884000", "173454.884000", "173456.884000", "173458.884000", "173500.884000", "173502.884000", "173504.884000", "173506.884000", "173508.884000", "173510.884000", "173512.884000", "173514.884000", "173516.884000", "173518.884000", "173520.884000", "173522.884000", "173524.884000", "173526.884000", "173528.884000", "173530.884000", "173532.884000", "173534.884000", "173536.884000", "173538.884000", "173540.883000", "173542.885000", "173544.885000", "173546.885000", "173548.884000", "173550.884000", "173552.884000", "173554.884000", "173556.884000", "173558.884000", "173600.884000", "173602.884000", "173604.884000", "173606.884000", "173608.884000", "173610.884000", "173612.884000", "173614.884000", "173616.884000", "173618.884000", "173620.884000", "173622.884000", "173624.884000", "173626.884000", "173628.884000", "173630.884000", "173632.884000", "173634.884000", "173636.884000", "173638.884000", "173640.884000", "173642.884000", "173644.884000", "173646.884000", "173648.884000", "173650.883000", "173652.884000", "173654.884000", "173656.884000", "173658.884000", "173700.884000", "173702.884000", "173704.884000", "173706.884000", "173708.884000", "173710.884000", "173712.884000", "173714.884000", "173716.884000", "173718.884000", "173720.884000", "173722.884000", "173724.884000", "173726.884000", "173728.884000", "173730.884000", "173732.884000", "173734.884000", "173736.884000", "173738.884000", "173740.884000", "173742.884000", "173744.884000", "173746.884000", "173748.884000", "173750.884000", "173752.884000", "173754.884000", "173756.884000", "173758.901000", "173800.883000", "173802.884000", "173804.884000", "173806.884000", "173808.884000", "173810.884000", "173812.884000", "173814.884000", "173816.884000", "173818.884000", "173820.884000", "173822.884000", "173824.884000", "173826.884000", "173828.884000", "173830.884000", "173832.884000", "173834.884000", "173836.884000", "173838.884000", "173840.884000", "173842.884000", "173844.884000", "173846.884000", "173848.884000", "173850.884000", "173852.884000", "173854.884000", "173856.884000", "173858.884000", "173900.884000", "173902.884000", "173904.884000", "173906.884000", "173908.884000", "173910.883000", "173912.884000", "173914.884000", "173916.884000", "173918.884000", "173920.884000", "173922.884000", "173924.884000", "173926.884000", "173928.884000", "173930.884000", "173932.884000", "173934.884000", "173936.884000", "173938.884000", "173940.884000", "173942.884000", "173944.884000", "173946.884000", "173948.884000", "173950.884000", "173952.884000", "173954.884000", "173956.884000", "173958.884000", "174000.884000", "174002.884000", "174004.884000", "174006.884000", "174008.884000", "174010.884000", "174012.884000", "174014.884000", "174016.884000", "174018.884000", "174020.883000", "174022.884000", "174024.884000", "174026.884000", "174028.884000", "174030.884000", "174032.884000", "174034.884000", "174036.884000", "174038.884000", "174040.884000", "174042.884000", "174044.884000", "174046.884000", "174048.884000", "174050.884000", "174052.884000", "174054.884000", "174056.884000", "174058.884000", "174100.884000", "174102.884000", "174104.884000", "174106.884000", "174108.884000", "174110.884000", "174112.883000", "174114.884000", "174116.884000", "174118.884000", "174120.884000", "174122.884000", "174124.884000", "174126.606000"],
      "InstanceCreationTime": ["173218.889000", "173220.884000", "173222.884000", "173224.884000", "173226.884000", "173228.883000", "173230.884000", "173232.884000", "173234.884000", "173236.884000", "173238.884000", "173240.884000", "173242.884000", "173244.884000", "173246.884000", "173248.884000", "173250.884000", "173252.884000", "173254.884000", "173256.884000", "173258.884000", "173300.884000", "173302.884000", "173304.884000", "173306.884000", "173308.884000", "173310.884000", "173312.884000", "173314.884000", "173316.884000", "173318.884000", "173320.883000", "173322.884000", "173324.884000", "173326.884000", "173328.884000", "173330.884000", "173332.884000", "173334.884000", "173336.884000", "173338.883000", "173340.884000", "173342.884000", "173344.884000", "173346.884000", "173348.884000", "173350.884000", "173352.884000", "173354.884000", "173356.884000", "173358.884000", "173400.884000", "173402.884000", "173404.884000", "173406.884000", "173408.884000", "173410.884000", "173412.884000", "173414.884000", "173416.884000", "173418.884000", "173420.884000", "173422.884000", "173424.884000", "173426.884000", "173428.884000", "173430.883000", "173432.884000", "173434.884000", "173436.884000", "173438.884000", "173440.884000", "173442.884000", "173444.884000", "173446.884000", "173448.883000", "173450.884000", "173452.884000", "173454.884000", "173456.884000", "173458.884000", "173500.884000", "173502.884000", "173504.884000", "173506.884000", "173508.884000", "173510.884000", "173512.884000", "173514.884000", "173516.884000", "173518.884000", "173520.884000", "173522.884000", "173524.884000", "173526.884000", "173528.884000", "173530.884000", "173532.884000", "173534.884000", "173536.884000", "173538.884000", "173540.883000", "173542.885000", "173544.885000", "173546.885000", "173548.884000", "173550.884000", "173552.884000", "173554.884000", "173556.884000", "173558.884000", "173600.884000", "173602.884000", "173604.884000", "173606.884000", "173608.884000", "173610.884000", "173612.884000", "173614.884000", "173616.884000", "173618.884000", "173620.884000", "173622.884000", "173624.884000", "173626.884000", "173628.884000", "173630.884000", "173632.884000", "173634.884000", "173636.884000", "173638.884000", "173640.884000", "173642.884000", "173644.884000", "173646.884000", "173648.884000", "173650.883000", "173652.884000", "173654.884000", "173656.884000", "173658.884000", "173700.884000", "173702.884000", "173704.884000", "173706.884000", "173708.884000", "173710.884000", "173712.884000", "173714.884000", "173716.884000", "173718.884000", "173720.884000", "173722.884000", "173724.884000", "173726.884000", "173728.884000", "173730.884000", "173732.884000", "173734.884000", "173736.884000", "173738.884000", "173740.884000", "173742.884000", "173744.884000", "173746.884000", "173748.884000", "173750.884000", "173752.884000", "173754.884000", "173756.884000", "173758.901000", "173800.883000", "173802.884000", "173804.884000", "173806.884000", "173808.884000", "173810.884000", "173812.884000", "173814.884000", "173816.884000", "173818.884000", "173820.884000", "173822.884000", "173824.884000", "173826.884000", "173828.884000", "173830.884000", "173832.884000", "173834.884000", "173836.884000", "173838.884000", "173840.884000", "173842.884000", "173844.884000", "173846.884000", "173848.884000", "173850.884000", "173852.884000", "173854.884000", "173856.884000", "173858.884000", "173900.884000", "173902.884000", "173904.884000", "173906.884000", "173908.884000", "173910.883000", "173912.884000", "173914.884000", "173916.884000", "173918.884000", "173920.884000", "173922.884000", "173924.884000", "173926.884000", "173928.884000", "173930.884000", "173932.884000", "173934.884000", "173936.884000", "173938.884000", "173940.884000", "173942.884000", "173944.884000", "173946.884000", "173948.884000", "173950.884000", "173952.884000", "173954.884000", "173956.884000", "173958.884000", "174000.884000", "174002.884000", "174004.884000", "174006.884000", "174008.884000", "174010.884000", "174012.884000", "174014.884000", "174016.884000", "174018.884000", "174020.883000", "174022.884000", "174024.884000", "174026.884000", "174028.884000", "174030.884000", "174032.884000", "174034.884000", "174036.884000", "174038.884000", "174040.884000", "174042.884000", "174044.884000", "174046.884000", "174048.884000", "174050.884000", "174052.884000", "174054.884000", "174056.884000", "174058.884000", "174100.884000", "174102.884000", "174104.884000", "174106.884000", "174108.884000", "174110.884000", "174112.883000", "174114.884000", "174116.884000", "174118.884000", "174120.884000", "174122.884000", "174124.884000", "174126.606000"],
      "InstanceNumber": [1, 2, 3, 4, 5, 6, 7, 8, 9, 10, 11, 12, 13, 14, 15, 16, 17, 18, 19, 20, 21, 22, 23, 24, 25, 26, 27, 28, 29, 30, 31, 32, 33, 34, 35, 36, 37, 38, 39, 40, 41, 42, 43, 44, 45, 46, 47, 48, 49, 50, 51, 52, 53, 54, 55, 56, 57, 58, 59, 60, 61, 62, 63, 64, 65, 66, 67, 68, 69, 70, 71, 72, 73, 74, 75, 76, 77, 78, 79, 80, 81, 82, 83, 84, 85, 86, 87, 88, 89, 90, 91, 92, 93, 94, 95, 96, 97, 98, 99, 100, 101, 102, 103, 104, 105, 106, 107, 108, 109, 110, 111, 112, 113, 114, 115, 116, 117, 118, 119, 120, 121, 122, 123, 124, 125, 126, 127, 128, 129, 130, 131, 132, 133, 134, 135, 136, 137, 138, 139, 140, 141, 142, 143, 144, 145, 146, 147, 148, 149, 150, 151, 152, 153, 154, 155, 156, 157, 158, 159, 160, 161, 162, 163, 164, 165, 166, 167, 168, 169, 170, 171, 172, 173, 174, 175, 176, 177, 178, 179, 180, 181, 182, 183, 184, 185, 186, 187, 188, 189, 190, 191, 192, 193, 194, 195, 196, 197, 198, 199, 200, 201, 202, 203, 204, 205, 206, 207, 208, 209, 210, 211, 212, 213, 214, 215, 216, 217, 218, 219, 220, 221, 222, 223, 224, 225, 226, 227, 228, 229, 230, 231, 232, 233, 234, 235, 236, 237, 238, 239, 240, 241, 242, 243, 244, 245, 246, 247, 248, 249, 250, 251, 252, 253, 254, 255, 256, 257, 258, 259, 260, 261, 262, 263, 264, 265, 266, 267, 268, 269, 270, 271, 272, 273, 274, 275],
      "LargestImagePixelValue": [1515, 1316, 1853, 1968, 1352, 1629, 1366, 1341, 1601, 1666, 1212, 1240, 1568, 1665, 1576, 1459, 1200, 1202, 1317, 1721, 1274, 1395, 1589, 1307, 1761, 1397, 1392, 1883, 1271, 1262, 1918, 1393, 1457, 1414, 1475, 1522, 1452, 1722, 1540, 1379, 1265, 1410, 1723, 1666, 1536, 1359, 1621, 1522, 1461, 1602, 1403, 1301, 1861, 1372, 1439, 1169, 1235, 1663, 1763, 1603, 1318, 1357, 1888, 1475, 1407, 1326, 1336, 1707, 1504, 1380, 1498, 1343, 1369, 1493, 1641, 1516, 1328, 1258, 1366, 1382, 1415, 1430, 1432, 1667, 1536, 1438, 1375, 1364, 1238, 1314, 1234, 1384, 1689, 1559, 1392, 1299, 1404, 1848, 1374, 1232, 1368, 1589, 1920, 1381, 1436, 1895, 1457, 1239, 1457, 1793, 1320, 1333, 1814, 1480, 1192, 1260, 1893, 1205, 1584, 1401, 1382, 1273, 1433, 1343, 1565, 1774, 1415, 1372, 1389, 1509, 1296, 1310, 1435, 1560, 1316, 1364, 1721, 1437, 1377, 1351, 1853, 1542, 1349, 1426, 1405, 1340, 1427, 1460, 1426, 1239, 1357, 1729, 1539, 1423, 1328, 1571, 1245, 1344, 1584, 1477, 1314, 1270, 1275, 1917, 1458, 1227, 1275, 1694, 1885, 1554, 1388, 1325, 1278, 1257, 1229, 1510, 1720, 1726, 1420, 1304, 1336, 1816, 1332, 1270, 1466, 1545, 1747, 1548, 1516, 1367, 1362, 1513, 1416, 1850, 1556, 1396, 1291, 1305, 1829, 1459, 1277, 1652, 1438, 1306, 1473, 1391, 1561, 1586, 1787, 1478, 1416, 1397, 1538, 1444, 1627, 1652, 1227, 1233, 1934, 1506, 1396, 1354, 1602, 1650, 1229, 1324, 1307, 1931, 1329, 1365, 1302, 1257, 2152, 1407, 1503, 1762, 1440, 1302, 1497, 1677, 1908, 1496, 1395, 1402, 1235, 1480, 1968, 1475, 1264, 1588, 1471, 1319, 1697, 1425, 1351, 1350, 1819, 1737, 1308, 1785, 1296, 1862, 1307, 1360, 1642, 1870, 1398, 1316, 1272, 2052, 1458, 1364, 1404, 1877, 1223],
      "WindowCenter": [595.0, 593.0, 595.0, 593.0, 590.0, 592.0, 591.0, 592.0, 593.0, 593.0, 590.0, 591.0, 593.0, 594.0, 593.0, 591.0, 590.0, 591.0, 592.0, 594.0, 592.0, 593.0, 594.0, 591.0, 595.0, 593.0, 592.0, 594.0, 592.0, 592.0, 594.0, 591.0, 593.0, 594.0, 593.0, 594.0, 593.0, 594.0, 592.0, 591.0, 592.0, 592.0, 593.0, 593.0, 593.0, 591.0, 594.0, 593.0, 591.0, 592.0, 592.0, 592.0, 593.0, 590.0, 591.0, 591.0, 592.0, 594.0, 594.0, 592.0, 591.0, 592.0, 594.0, 592.0, 592.0, 591.0, 592.0, 593.0, 593.0, 592.0, 592.0, 591.0, 591.0, 594.0, 594.0, 593.0, 592.0, 592.0, 592.0, 592.0, 591.0, 591.0, 591.0, 593.0, 592.0, 591.0, 592.0, 591.0, 591.0, 591.0, 591.0, 592.0, 593.0, 593.0, 592.0, 591.0, 591.0, 593.0, 591.0, 593.0, 593.0, 592.0, 593.0, 591.0, 592.0, 592.0, 591.0, 590.0, 591.0, 592.0, 591.0, 591.0, 592.0, 591.0, 591.0, 591.0, 593.0, 589.0, 593.0, 592.0, 592.0, 591.0, 592.0, 592.0, 592.0, 594.0, 592.0, 591.0, 591.0, 592.0, 591.0, 591.0, 591.0, 592.0, 591.0, 591.0, 593.0, 592.0, 592.0, 591.0, 593.0, 592.0, 590.0, 592.0, 592.0, 591.0, 591.0, 591.0, 591.0, 590.0, 591.0, 593.0, 592.0, 591.0, 591.0, 592.0, 590.0, 591.0, 592.0, 591.0, 591.0, 590.0, 590.0, 593.0, 591.0, 591.0, 591.0, 593.0, 593.0, 592.0, 590.0, 590.0, 590.0, 590.0, 590.0, 592.0, 593.0, 592.0, 591.0, 590.0, 591.0, 593.0, 591.0, 591.0, 592.0, 592.0, 593.0, 592.0, 592.0, 590.0, 590.0, 591.0, 591.0, 593.0, 591.0, 590.0, 591.0, 590.0, 593.0, 591.0, 590.0, 592.0, 590.0, 591.0, 593.0, 591.0, 592.0, 592.0, 593.0, 591.0, 591.0, 591.0, 591.0, 591.0, 592.0, 591.0, 590.0, 590.0, 594.0, 591.0, 591.0, 591.0, 591.0, 592.0, 590.0, 591.0, 591.0, 593.0, 590.0, 592.0, 591.0, 591.0, 594.0, 591.0, 592.0, 593.0, 592.0, 591.0, 592.0, 592.0, 593.0, 591.0, 591.0, 590.0, 589.0, 590.0, 593.0, 591.0, 589.0, 592.0, 592.0, 591.0, 592.0, 591.0, 592.0, 591.0, 592.0, 592.0, 591.0, 593.0, 589.0, 592.0, 590.0, 591.0, 592.0, 592.0, 591.0, 591.0, 589.0, 593.0, 591.0, 591.0, 591.0, 592.0, 589.0],
      "WindowWidth": [1258.0, 1252.0, 1256.0, 1252.0, 1245.0, 1250.0, 1249.0, 1250.0, 1251.0, 1252.0, 1247.0, 1248.0, 1252.0, 1255.0, 1253.0, 1249.0, 1247.0, 1249.0, 1251.0, 1254.0, 1250.0, 1254.0, 1254.0, 1249.0, 1256.0, 1253.0, 1250.0, 1253.0, 1250.0, 1250.0, 1253.0, 1247.0, 1252.0, 1254.0, 1253.0, 1254.0, 1251.0, 1253.0, 1250.0, 1249.0, 1250.0, 1251.0, 1251.0, 1253.0, 1254.0, 1249.0, 1254.0, 1252.0, 1249.0, 1250.0, 1250.0, 1251.0, 1253.0, 1246.0, 1249.0, 1249.0, 1250.0, 1254.0, 1254.0, 1251.0, 1248.0, 1249.0, 1255.0, 1251.0, 1250.0, 1249.0, 1249.0, 1253.0, 1252.0, 1251.0, 1251.0, 1248.0, 1249.0, 1254.0, 1255.0, 1252.0, 1249.0, 1250.0, 1250.0, 1249.0, 1248.0, 1249.0, 1248.0, 1251.0, 1251.0, 1249.0, 1250.0, 1249.0, 1249.0, 1248.0, 1248.0, 1250.0, 1253.0, 1252.0, 1250.0, 1249.0, 1248.0, 1251.0, 1249.0, 1252.0, 1253.0, 1251.0, 1252.0, 1248.0, 1249.0, 1250.0, 1247.0, 1247.0, 1248.0, 1249.0, 1249.0, 1249.0, 1250.0, 1247.0, 1250.0, 1249.0, 1251.0, 1244.0, 1251.0, 1249.0, 1249.0, 1248.0, 1249.0, 1249.0, 1251.0, 1254.0, 1249.0, 1248.0, 1249.0, 1249.0, 1248.0, 1248.0, 1249.0, 1250.0, 1249.0, 1248.0, 1251.0, 1251.0, 1250.0, 1248.0, 1251.0, 1249.0, 1247.0, 1251.0, 1250.0, 1248.0, 1249.0, 1249.0, 1248.0, 1246.0, 1248.0, 1252.0, 1250.0, 1248.0, 1248.0, 1250.0, 1245.0, 1247.0, 1250.0, 1247.0, 1247.0, 1247.0, 1246.0, 1251.0, 1248.0, 1248.0, 1248.0, 1251.0, 1252.0, 1249.0, 1247.0, 1247.0, 1247.0, 1247.0, 1247.0, 1249.0, 1252.0, 1249.0, 1247.0, 1247.0, 1247.0, 1251.0, 1248.0, 1248.0, 1250.0, 1250.0, 1251.0, 1251.0, 1250.0, 1247.0, 1247.0, 1248.0, 1247.0, 1251.0, 1247.0, 1246.0, 1247.0, 1247.0, 1252.0, 1248.0, 1246.0, 1250.0, 1246.0, 1248.0, 1251.0, 1249.0, 1249.0, 1249.0, 1251.0, 1248.0, 1248.0, 1247.0, 1248.0, 1248.0, 1249.0, 1248.0, 1246.0, 1246.0, 1253.0, 1247.0, 1247.0, 1248.0, 1248.0, 1249.0, 1246.0, 1248.0, 1247.0, 1251.0, 1245.0, 1250.0, 1249.0, 1248.0, 1254.0, 1248.0, 1250.0, 1253.0, 1250.0, 1248.0, 1250.0, 1250.0, 1251.0, 1248.0, 1247.0, 1246.0, 1244.0, 1247.0, 1251.0, 1247.0, 1243.0, 1249.0, 1249.0, 1248.0, 1250.0, 1248.0, 1250.0, 1249.0, 1250.0, 1249.0, 1248.0, 1252.0, 1245.0, 1250.0, 1246.0, 1247.0, 1249.0, 1250.0, 1248.0, 1247.0, 1245.0, 1252.0, 1247.0, 1248.0, 1247.0, 1249.0, 1244.0]
    },
    "slices": {}
  }
}